time,heart_rate,spo2
0.0,73.06209581476489,95.66008990332458
0.004,73.4441653145181,95.6577785835867
0.008,71.62163616948222,95.38849453164089
0.012,72.08176129077629,95.51792634252868
0.016,73.20545094608842,95.61582152400133
0.02,71.48752820256065,95.2782818562673
0.024,71.63410057991763,95.50155996304527
0.028,73.10875573307958,95.52170262926741
0.032,73.18689756157285,95.59048076036889
0.036,71.49395812363029,95.72583843345053
0.04,73.79102414778859,95.7055272409666
0.044,73.62385460360672,95.72433655080988
0.048,73.94935339188723,95.6250919894705
0.052,71.2957799433797,95.21012269368528
0.056,72.5061622894077,95.75912906895714
0.06,71.44230805143616,95.36459989331937
0.064,72.79188627011054,96.0288773940792
0.068,74.8013936453218,95.31969522018625
0.072,72.28908615507206,95.4454014906698
0.076,72.4854209579856,95.6014442138624
0.08,73.45005335203345,95.54580532028513
0.084,74.99417929896848,95.67471853218252
0.088,72.42378355483623,95.77427161774534
0.092,74.27657382493618,95.50703528039881
0.096,71.42058167652537,95.46515530309989
0.1,74.45470491183544,95.51668733486294
0.104,73.4496526066894,95.93912062404121
0.108,74.55839144291352,95.85247012109197
0.112,74.3090314541382,95.9442880535481
0.116,73.2208022443527,95.78173936166807
0.12,72.6607626420487,95.65742803921934
0.124,71.52579077205381,95.12504457992564
0.128,72.50113331694786,95.82765898230389
0.132,72.1995528075833,95.67467794324365
0.136,73.33732325412888,95.6375958154525
0.14,73.11453433022086,95.64892066278003
0.144,72.81896272623702,95.90230853923742
0.148,72.51289783199461,95.76254712475729
0.152,74.58079198575732,95.9042058122697
0.156,73.95195799175552,95.79240816354027
0.16,72.317812265458,95.9398567703396
0.164,72.3778879431258,95.69235885815424
0.168,74.52566433448573,96.29434152438171
0.172,75.02141587847936,95.61704663099663
0.176,72.92114678316639,95.63670369483089
0.18,73.77460879649355,95.83123680543638
0.184,73.69744810536221,95.64782231475802
0.188,73.36218067557044,96.08517402488434
0.192,72.86268183032229,95.5104462645156
0.196,72.89732344911104,95.6621654890655
0.2,72.61088777359201,95.42792139532972
0.204,71.29917087297089,95.67364639588818
0.208,74.00010255060344,95.87263673775159
0.212,73.9494885243666,95.81776778812745
0.216,73.28977381360937,95.79454202491226
0.22,74.23619875566327,95.94851378445816
0.224,71.22796531144631,95.54734487188963
0.228,75.20877428293652,95.77406304280497
0.232,73.52635887814989,95.45893957369988
0.236,73.26284550387022,95.68397574555227
0.24,74.46083285352528,95.77704634331687
0.244,73.84449211663186,95.65004994206357
0.248,73.10780280826506,95.6075860795948
0.252,74.45973455948945,95.96487823171742
0.256,73.75033985131026,95.76821272163953
0.26,72.94335182774788,96.2648600799091
0.264,72.57171814516875,95.93488379219336
0.268,73.62546455367651,96.25408277424907
0.272,73.75398443037173,95.61240555138887
0.276,72.27156580704278,95.78867295722125
0.28,73.70074931939658,95.62852485935441
0.284,73.4700641589505,95.62617183632561
0.288,75.4457056607351,95.86799236668007
0.292,75.76727309603606,95.73662064617994
0.296,72.70525750548946,96.10298695605601
0.3,73.77743690156791,95.97120942032943
0.304,71.59446285710754,95.86638541367878
0.308,73.75175037518507,95.65248285056644
0.312,73.49099598531078,96.10038607256637
0.316,73.15293371383444,95.99163303823933
0.32,74.26494391698773,95.82999373674757
0.324,75.13242472578175,95.945940946954
0.328,72.70785352977079,95.71395931212759
0.332,74.44035429529207,95.52768090004538
0.336,72.95809744843652,95.89730057734391
0.34,74.87429465151429,95.82497352362331
0.344,73.94893430103423,95.85506422005916
0.348,74.46471111674043,95.65755556441997
0.352,74.84093576059271,95.7413343914624
0.356,73.99770577503679,95.8423219034576
0.36,73.15764697685454,95.85160962334474
0.364,73.81634308402302,95.67724402422651
0.368,73.34781735947583,95.7430076054511
0.372,75.70648946140601,95.63564214428847
0.376,76.3436211963637,96.04726831429134
0.38,74.75072595800549,95.23276135387734
0.384,71.10160987330907,95.87293262870959
0.388,72.92371777264366,95.96870913900736
0.392,73.82689786398355,95.2946922604414
0.396,74.94149653715543,95.8926298396208
0.4,74.94416734411931,95.55055858289977
0.404,73.44619915443516,96.19462691923485
0.408,74.34331108401273,95.61194295543268
0.412,71.29871068310312,95.76965116904992
0.416,74.02140043824848,95.74899583200772
0.42,72.1492274567067,96.04200134753991
0.424,74.34244156837023,95.71057895632023
0.428,73.34268163281538,95.70033768105127
0.432,74.99097932084292,96.0195694880371
0.436,75.40975837719778,96.1997221469784
0.44,74.9509150278025,96.21710615888833
0.444,73.60561696458143,96.02533947840193
0.448,75.20490421147208,96.30020206118691
0.452,73.62852095440527,96.1045563774119
0.456,75.45631578364602,95.84221398912922
0.46,74.79651767424997,95.51049253564076
0.464,74.29007019271309,96.08329596748312
0.468,74.76464576010162,95.79158063397585
0.472,75.43279022603257,95.80209692447174
0.476,72.28018429761512,96.33190795401698
0.48,75.19921230537415,95.70297829901233
0.484,73.61989224368732,95.94175740824501
0.488,72.99763543287938,95.86758397433705
0.492,73.00482660889104,95.78264756389744
0.496,76.2160064378741,95.75419461258701
0.5,73.52928480549495,96.18963306911894
0.504,73.47784096142887,95.72748545021554
0.508,72.49588314509474,95.9123633611844
0.512,73.19298728268313,95.96088616718819
0.516,76.69291932650498,95.87120463063836
0.52,73.80841581305056,95.62273413763953
0.524,74.17510028646768,96.17434724873989
0.528,73.53400786795305,96.18862302106575
0.532,74.07420724687601,96.09544711242023
0.536,74.90001770712148,95.93735163677391
0.54,74.6072541117603,95.75552425590351
0.544,75.87703104112643,95.73606724581316
0.548,74.13740104432088,96.28174147739756
0.552,73.95611468516624,95.94910655087804
0.556,75.33316231096227,95.89210486878652
0.56,74.13600300713163,96.01106880537134
0.564,74.32958751972963,96.18543157460861
0.568,73.61679117140804,95.86417618977292
0.572,74.5893157606341,95.6934499536661
0.576,73.1520739285218,95.80377764095284
0.58,72.25821445932023,95.85471792261215
0.584,74.17189206647726,95.83929179013143
0.588,74.0803938498944,95.58858616769308
0.592,71.96416720809988,95.99454579204959
0.596,73.06658645626842,95.82481422584806
0.6,74.61777076837679,95.86678827373625
0.604,73.51743047545413,96.02205258054713
0.608,74.90183797460195,95.68967795246587
0.612,74.79677951213222,96.32400558073552
0.616,72.68729450713828,96.0493094992032
0.62,73.4313746176228,95.67454860497489
0.624,72.61457815475204,95.69781794654904
0.628,73.30434564641564,95.97396859904809
0.632,75.64391117915501,96.08214547501495
0.636,75.31705773988641,96.31845958309316
0.64,75.04730572832312,95.66410953069223
0.644,74.37414793320924,96.04380595867228
0.648,73.64513805177403,95.77610254098526
0.652,74.07059727528856,95.81630921948882
0.656,73.73634321249125,95.71295117881243
0.66,76.31108746429103,95.90209193118922
0.664,74.42435655102653,95.73175842013875
0.668,74.76180060959737,96.17324403475695
0.672,73.34508481067378,96.13027754124047
0.676,75.9000882335906,95.84281345895809
0.68,73.89670426816701,96.17483109683937
0.684,75.58082226167414,96.19530046225823
0.688,74.46265888595359,95.83558913599462
0.692,75.77551322966164,96.13542823450776
0.696,75.39286440658401,95.71193133483091
0.7,74.66510434200923,96.03326087480274
0.704,75.16212251626648,95.81247576500068
0.708,72.50581390315308,95.70469668673243
0.712,74.82067872213159,95.97719400611427
0.716,75.38464840771746,95.97519660587741
0.72,74.12006795632763,96.17767428316222
0.724,74.31856182153257,95.95134874423066
0.728,73.44933562257053,96.07410262764039
0.732,73.2734234836452,95.79334970707667
0.736,73.13767222413539,95.88189953305775
0.74,72.16606847211825,95.88492226789128
0.744,75.20244800711978,95.77407092876626
0.748,74.12281015103582,95.82029519386002
0.752,75.52324401072707,95.64850118910304
0.756,74.67589801506823,96.37588465228608
0.76,71.85182149163535,96.07229616798283
0.764,73.9271160788954,96.07960812173907
0.768,73.58558489004149,96.19719527106643
0.772,73.44968145148502,95.92747764232246
0.776,73.79436751356143,96.23889968037078
0.78,75.1937234181878,96.25634606462812
0.784,72.83291436599707,96.07624240844525
0.788,74.19975066979895,96.2783499842164
0.792,74.37871451126173,96.14030779078263
0.796,74.63981281106325,96.00750102187241
0.8,74.12349747398979,96.10603429068313
0.804,75.67757081561184,95.84382107051701
0.808,74.03152917006042,96.60675253191293
0.812,74.79238915227089,95.94922522625637
0.816,75.87372825185675,96.38829072740968
0.82,75.04603138621732,95.83740777010063
0.824,75.26973603758199,96.33719407969532
0.828,74.52614411683935,96.38325475355009
0.832,75.01091382491046,96.14374738812462
0.836,75.20191282206257,95.9416553614688
0.84,75.09062412277673,96.23746790071824
0.844,73.3666568149146,95.90762464757381
0.848,74.96502690344371,95.72689579181251
0.852,74.39012209120787,95.89558163991032
0.856,73.90224637029108,96.10025462687818
0.86,74.46485090446302,95.98924905341833
0.864,75.23116507089514,95.88613963192661
0.868,75.96766751767976,96.37269059133976
0.872,75.26201250741798,96.10363444929752
0.876,73.63350173893144,96.05531272580951
0.88,75.43168614407335,96.0552456717034
0.884,74.08596507959678,96.58599310672919
0.888,74.05539353963773,96.36794442570367
0.892,74.33311633010732,96.19205719483034
0.896,74.47415853700161,95.93718643663094
0.9,74.94906530927817,95.95770279497746
0.904,73.82936657143304,95.7958321266324
0.908,75.00576645431049,96.47119906021217
0.912,74.36958477351321,95.93826348973504
0.916,74.61819366232267,96.21558835541165
0.92,74.61421000690413,96.07008663860744
0.924,75.59579972269734,95.93084827310189
0.928,76.02314639815272,96.23629893026853
0.932,75.28196231914355,96.1958596878781
0.936,74.87217606613193,96.39683443501772
0.94,73.94750768016411,95.71970149271249
0.944,75.06941162068739,96.36800848867419
0.948,74.20452037578539,96.19068446805977
0.952,74.88371929935731,96.0211012070065
0.956,76.26823375206155,95.77836868534884
0.96,74.99774590585534,96.32646514668504
0.964,77.46035938048274,95.55635261836036
0.968,75.47735359296829,96.21019433879127
0.972,73.95775947819408,96.20127895799723
0.976,75.4107386328393,95.96779001677437
0.98,76.32504804459057,96.06612495128886
0.984,76.09180310927724,96.30411087705906
0.988,75.74821923347949,95.98746940680081
0.992,74.79574298127697,96.10312677553297
0.996,75.4809170287293,96.33752389379933
0.0,75.8649529206004,96.21745424996878
0.004,76.58672409104886,96.39450395943193
0.008,78.79241440111802,96.08835373169961
0.012,76.59292184629855,96.35880834011844
0.016,77.09916327461627,96.16395592661563
0.02,76.83757711341887,96.26699801356718
0.024,76.43501708856472,96.1005700669404
0.028,76.2490987047942,96.16050158102477
0.032,75.79808580853728,96.2611555305841
0.036,78.16813810215247,96.42109468759935
0.04,76.80149668632473,96.17087292638439
0.044,77.08718113160747,96.4269146584268
0.048,77.06420377539207,96.76929891376399
0.052,76.3743645244282,96.63665119577142
0.056,77.09090230302068,96.29969970371522
0.06,77.32011235471755,96.10075720444505
0.064,76.51698452013031,96.2706727670396
0.068,76.27335983343342,96.51603968251469
0.072,75.12857298441753,96.34074586555894
0.076,76.08082418770012,96.29603019829591
0.08,76.5741046826991,96.44991311688979
0.084,77.29054806862838,96.35598102369201
0.088,77.79469362965995,96.0276943466665
0.092,76.02047666920353,96.10822943831015
0.096,76.42989619937163,96.1041557060353
0.1,77.16710554296867,96.12574687784827
0.104,76.8766650727338,96.12839149561628
0.108,76.34705868508607,96.41486045574354
0.112,78.18448957056192,96.18129937509204
0.116,77.07930219570173,96.28486943001265
0.12,76.27731111793379,96.4236866236626
0.124,77.71798565480464,96.28568821304911
0.128,75.77090886615635,96.08115861201323
0.132,75.52295769433793,96.03701521277137
0.136,78.21343284111292,96.09142440097382
0.14,75.41368928301796,95.82452023513068
0.144,76.53371728536797,96.30464315726492
0.148,75.97262919257207,96.24704461359383
0.152,77.79890993328972,96.00675618650952
0.156,77.70188031416164,96.62620023073823
0.16,75.5158255960569,95.9698458799911
0.164,76.67167427250521,96.1777942474816
0.168,75.78644409146324,96.23333851309846
0.172,75.74876390180222,96.1538052867011
0.176,77.28181627266326,95.78815059115301
0.18,75.24055064080964,96.3334090923342
0.184,77.1800684057449,96.05527873846958
0.188,78.24617322912043,96.2960625856224
0.192,75.97341259133024,96.674326780667
0.196,78.29382505104567,96.03392411955274
0.2,76.22715144226336,96.1101572650138
0.204,77.47388469131178,96.26691238861582
0.208,76.79425459214464,96.1635434197856
0.212,76.45848447977056,96.24557479238399
0.216,77.7832104055643,96.19883255695082
0.22,78.28525127097558,96.25733088134857
0.224,77.08819022594236,96.6292795962788
0.228,77.07564660627231,96.40506176588374
0.232,77.73763159339855,96.35122992146746
0.236,76.27278884263869,96.27531020428347
0.24,77.68087512228455,96.20150318190048
0.244,77.54066006496383,96.32866477870704
0.248,76.31973552842798,96.36529500434357
0.252,77.84529503507184,96.28666819303076
0.256,76.38564686814469,96.41615543401275
0.26,80.04639637030287,96.27225089844924
0.264,78.10003335775292,96.55677717981537
0.268,76.04486920911503,96.17532780819927
0.272,77.52660182764537,96.6589396096922
0.276,78.46726640918618,96.2481972323208
0.28,77.32549528579996,95.89796826544892
0.284,76.79886075860469,96.49519020303237
0.288,76.37579973460805,96.23396384809625
0.292,76.3393341420975,96.46873760610563
0.296,76.95641058318071,96.35125146441867
0.3,78.66400528644787,96.4544366588747
0.304,77.87214431074104,96.18684307612546
0.308,77.74807708472007,96.08864908431812
0.312,76.40026977949775,95.90559015330437
0.316,76.75812845035814,96.48048033958074
0.32,76.71002122658832,96.24580815436661
0.324,75.83495233889414,96.50662639933444
0.328,78.39697375394148,96.0440072279306
0.332,76.63838593236835,96.29527240330441
0.336,76.69295457398724,96.22551719839358
0.34,78.60676861401933,96.5803882561206
0.344,77.74783823751751,96.50428785796876
0.348,76.07760997386816,96.37571573223826
0.352,76.82433907383083,96.41143355751277
0.356,74.32135350829503,95.85678011225608
0.36,75.23455718306661,96.54451257668607
0.364,77.43525385034687,96.73363925986945
0.368,76.73588241531513,96.34507523931826
0.372,77.91257087465716,96.22167983829242
0.376,78.03588415376115,96.5673463854966
0.38,77.71108623611134,96.09882409528221
0.384,78.07002468577723,96.22095838044305
0.388,77.99137367740633,96.4818966732666
0.392,77.399082408493,96.52215274457824
0.396,78.05571218737765,96.34418439974762
0.4,77.14647113614186,96.4117805665442
0.404,77.490485737712,95.96048279140211
0.408,77.91066920321609,96.46613470936452
0.412,76.72719810035379,96.2872368656754
0.416,76.57728879878555,96.07231696207448
0.42,77.62650864188896,96.40196272501589
0.424,76.91660681681958,96.3778602832429
0.428,77.41889598633553,96.85188349724795
0.432,76.82384096129903,96.41253635879242
0.436,77.28372595429386,96.25342754186254
0.44,78.14718509581806,95.9991882658707
0.444,76.5982782261538,96.61316625886273
0.448,77.23096010932191,96.42294022705475
0.452,77.2251600532616,96.44413973842742
0.456,77.44897130627797,96.23412505249667
0.46,77.4685916505299,96.19042658543147
0.464,77.46558846646866,96.68917793934855
0.468,77.0915799500931,96.63721248377172
0.472,76.79627340144842,96.05531308463036
0.476,76.98219820030153,96.55400754357336
0.48,77.97799773402289,96.4025099393931
0.484,76.89043554420391,96.51011988854461
0.488,77.97319669961539,96.53370289053291
0.492,77.49915182911701,96.49434685192013
0.496,76.96914296281766,96.39295739634024
0.5,73.6463879618888,96.98638986984591
0.504,75.9647206137649,96.76328301297951
0.508,77.67000007512715,96.40983613067198
0.512,75.9575954010397,96.30018751370662
0.516,77.2489418123104,96.53054895729258
0.52,76.29879440293716,96.32262892498073
0.524,79.31089466403128,96.49051442722015
0.528,77.22435229540945,96.37595541356836
0.532,77.40703802290821,96.6180934109136
0.536,75.35635464294552,96.53913293336011
0.54,77.15139024918443,96.37614328581101
0.544,77.16832884129737,96.25462063216978
0.548,78.34942675407416,96.42496186376013
0.552,77.04215672678328,96.47146077727199
0.556,77.29062718249433,96.16848391367225
0.56,76.9703457597848,96.37978154080163
0.564,79.64935627732622,96.39403538797552
0.568,77.12635975055446,96.19460632003857
0.572,78.33633089525694,96.29770594118797
0.576,75.50810481661047,96.20842859488232
0.58,75.8275992812609,96.48690019260032
0.584,75.32035086210706,96.66361911131142
0.588,77.21126895746848,96.28328294773227
0.592,75.42044891814655,96.54606217380417
0.596,77.6121428878487,96.50624554063418
0.6,76.52509485880425,96.56457854735697
0.604,77.39333351492196,96.03313152155832
0.608,78.53981273855896,96.34532258206487
0.612,76.31974924380373,96.20845811493126
0.616,75.41593983127909,96.5674089396726
0.62,76.20648468157836,96.33950030034265
0.624,76.15356435262777,96.54772432623467
0.628,78.00158263793351,96.44150248191951
0.632,79.00575252628363,96.39045220250843
0.636,77.33308667627708,96.52144729551779
0.64,76.4199289458735,96.1854777597924
0.644,77.679728350434,96.79235376350314
0.648,76.95066297578455,96.55102655020538
0.652,76.92898710369082,96.60861721034443
0.656,76.92204695444167,96.38495821757688
0.66,76.74993515180753,96.58985136879173
0.664,77.24845928951375,96.48648870588694
0.668,77.38574994366219,96.60970665837307
0.672,76.1218892979226,96.6586548805513
0.676,77.59590537822486,96.71435199092623
0.68,77.1795665734776,96.43626395494084
0.684,76.99334733347456,96.3411837400761
0.688,78.36400932055614,96.622641598298
0.692,75.90149651098477,96.60104108810724
0.696,76.92184104367169,96.14141016922214
0.7,77.35198614212139,96.87904379014131
0.704,75.68640754575323,96.37538647588464
0.708,76.2463090942074,96.39538054796236
0.712,77.6341939525213,96.59566399392575
0.716,76.71716291565673,96.41283033283023
0.72,78.04991970490828,96.54283876933184
0.724,78.02283001994007,96.62746123600493
0.728,75.46916184405245,96.47141287464214
0.732,77.73355849777467,96.37780761984082
0.736,76.98047044040672,96.5629894907632
0.74,76.19818429489224,96.62229530254575
0.744,77.17879146223542,96.49157853348746
0.748,76.37712894840222,96.47033211819473
0.752,79.0743529100349,96.2805466619818
0.756,76.5092409961489,96.92751030796254
0.76,78.03309721786417,96.47699623149464
0.764,77.63265315407764,96.56821489511987
0.768,76.58795297087174,96.43063509979517
0.772,76.73973855450087,96.49493014449759
0.776,75.75004237587378,96.35441504825103
0.78,77.26692331923202,96.63663426931912
0.784,76.8993370470856,96.636796180718
0.788,78.18648646645245,96.15165821865247
0.792,76.54478485929924,96.44328595650936
0.796,76.372711031936,96.57721868147686
0.8,78.06086622736804,96.6303554202137
0.804,76.12546097103264,96.57741487446613
0.808,76.91547834951864,96.68704700213063
0.812,76.45077058945841,96.43832715179197
0.816,77.91525012319086,96.70505581014065
0.82,76.79639998438664,96.63228770339268
0.824,78.71356543509862,96.34627482412264
0.828,76.30410605409789,96.48108370259095
0.832,75.9209908174644,96.53778432373203
0.836,77.67520090552499,96.77452831539584
0.84,77.00517774382257,96.38111804755098
0.844,75.19287067005517,96.52546564519974
0.848,77.6034810127342,96.51222212892372
0.852,76.77909073102887,96.31091830072396
0.856,76.26292143604118,96.38814861574944
0.86,77.69719724779402,96.48958953841212
0.864,76.49268022643686,96.83459882421637
0.868,76.96056448801052,96.66029286460035
0.872,76.16716341878451,96.40413946457501
0.876,77.64212052385341,96.3368880350214
0.88,77.91196530616365,96.67274285741604
0.884,78.8034924279578,96.46244017484905
0.888,76.47549225714532,96.75956440805128
0.892,76.9710906638894,96.68694442560859
0.896,77.8519465869557,96.94042847479766
0.9,77.749558814188,96.52887816343609
0.904,77.73707393980747,96.60769727319305
0.908,78.20170505536014,96.666413999605
0.912,75.84345212887328,96.77655874383609
0.916,76.73422352172872,96.90643256435689
0.92,78.92862278776975,96.6524521221454
0.924,76.78526366987123,96.50260208516062
0.928,77.42743148351386,96.49902981289199
0.932,78.05760020246538,96.6662794026087
0.936,77.20161693793074,96.807065985021
0.94,75.34846812109103,96.4127806475651
0.944,77.35043918393745,96.52724140862051
0.948,76.7762078868544,96.67563048526783
0.952,77.03623281059998,96.76094938590539
0.956,76.5426632199851,96.4554023148379
0.96,75.26417717414805,96.45032522028609
0.964,75.64264210658638,96.62903970938092
0.968,77.10884060260246,96.65876965101359
0.972,76.97685780310458,96.75576675668835
0.976,77.83771685319513,96.50212223132736
0.98,76.59598888449409,96.67920578698542
0.984,73.99394216309302,96.52014787476604
0.988,76.32447343082416,96.71810474014553
0.992,76.58093336709089,96.54475204923621
0.996,78.3813485392109,96.7865214412956
0.0,76.7522853824487,96.52718868511525
0.004,76.65242595663385,96.66095553518956
0.008,76.42939405304058,96.48334998143685
0.012,76.8448010304688,96.45129599783584
0.016,78.43544154139535,96.42507417665628
0.02,76.43714689490116,96.57779723323398
0.024,78.58769489528248,96.6004553798903
0.028,77.59004160187558,96.5101319819713
0.032,76.91191047795778,96.6850472503708
0.036,76.66448985159545,96.72493340343435
0.04,77.02358281744323,96.59006310492572
0.044,77.12545540467433,96.47400280329832
0.048,77.48518367168943,96.52347321508842
0.052,76.63589134374789,96.7042147325317
0.056,75.3780388996031,96.85679282560817
0.06,75.74521132506273,96.5237486490791
0.064,74.79771078052408,96.60514917245837
0.068,76.33116078592226,96.8972089404396
0.072,75.12857725360959,96.74644436711986
0.076,77.51655845916645,96.75264897487472
0.08,77.08236297948012,96.37327276870883
0.084,76.55119718885605,96.5111233781722
0.088,78.28642536537946,96.36472115241835
0.092,77.53960475734377,96.86888547960014
0.096,76.54006329239967,96.44930918372307
0.1,77.02286711765942,96.92729388678258
0.104,75.59697124807266,96.80425810219141
0.108,77.55438483122194,96.6490674828407
0.112,76.91217314670006,96.24098682598208
0.116,75.27538668817012,96.44172221452861
0.12,76.57382245133631,96.68211610704688
0.124,76.01560203051055,96.83002882644927
0.128,75.92813302695183,96.97568054560939
0.132,76.08857856418464,96.77811763944462
0.136,76.64481107795524,96.71719109519263
0.14,77.62624473544473,96.89553611837304
0.144,75.8316580891493,96.41969717538436
0.148,76.14828517271533,96.28459569496367
0.152,75.32275886049285,96.71425283727282
0.156,75.42189152764101,96.55506139749654
0.16,77.21280836861027,96.59022374418828
0.164,75.24975895217726,96.84516980236516
0.168,78.06940572128931,96.65648282483784
0.172,76.5287632006335,96.90604443735084
0.176,75.75740023739333,96.78537672757811
0.18,76.31819185506018,97.08772614365205
0.184,77.04276317681324,96.77882574231366
0.188,77.63671304301965,96.71982936693496
0.192,75.94526999383706,96.51350282536181
0.196,76.23783142743426,96.51393821978195
0.2,75.6144699168286,96.43083518780682
0.204,77.33214025253362,96.91215081123148
0.208,76.6638187687945,96.56942393520148
0.212,77.14099110178724,96.80679220094656
0.216,79.2343846026469,96.98691162109137
0.22,77.06393764736856,96.83351975528377
0.224,77.24049953942831,97.10976603731687
0.228,75.79019775687712,97.0432631329069
0.232,76.25335707471423,96.92824570771295
0.236,75.75938367347077,96.8647234532715
0.24,77.04312012337635,96.48216601893301
0.244,75.88052475576126,96.71364270638199
0.248,77.50199469290168,96.76317338064328
0.252,76.82048454824113,96.80014548420738
0.256,77.77542957070659,97.0256612340137
0.26,75.5917582881719,96.81125947810413
0.264,77.11115982833488,96.81162982075703
0.268,75.75915621551802,96.65743859888804
0.272,77.66174101262283,96.44722678872098
0.276,76.84100469945803,96.67493564382592
0.28,76.48258439809527,96.80158849069088
0.284,77.6617928221907,96.84360770183595
0.288,77.1338126018667,96.59988045560276
0.292,76.27293433468493,96.53354397172374
0.296,77.60188287274042,96.44592796346151
0.3,77.07177473532747,96.39796388300861
0.304,76.820938188507,96.72063715855012
0.308,74.7241933909007,96.86221048093826
0.312,77.6194291038773,96.69622632274357
0.316,75.4022246967356,96.556326819311
0.32,76.41026103925246,96.70642434011391
0.324,76.86556660142203,96.52277259822134
0.328,77.78907385327345,96.69556677499398
0.332,77.73099202738797,96.73086384114357
0.336,77.17370398536345,96.70727177598704
0.34,76.65281847357397,96.4382231834022
0.344,75.22434674950227,96.86568517704698
0.348,77.43082611745415,96.49845841521095
0.352,76.0577656945747,97.2289731534845
0.356,78.19510922470835,96.72301141644266
0.36,75.46578114015132,97.02029003074385
0.364,76.35566958338481,96.72813163689385
0.368,75.19313008706902,97.11938951502998
0.372,77.92626955938897,96.67279809930255
0.376,76.23307879975498,96.51194018883093
0.38,76.94320032719435,96.82689036612707
0.384,75.9787879950384,96.67209689631417
0.388,77.14924980187439,96.74290760318033
0.392,76.43095866500809,96.69789524572127
0.396,77.7297805305623,96.7733525762781
0.4,76.1077464520045,96.42154380857066
0.404,77.43791104878942,96.50667259241108
0.408,75.28126568112457,96.95120125567543
0.412,76.21937739031048,97.06811725741393
0.416,74.66534254860072,96.83356341748667
0.42,74.86933210126111,96.66967783709649
0.424,74.17798964116668,96.80802651557151
0.428,76.46720361687188,97.1576471824277
0.432,77.50693256472945,96.68762141856101
0.436,75.09314081752976,96.82380507447684
0.44,76.55497708043032,96.98884886394376
0.444,74.76417633878994,96.86280711054815
0.448,75.07135773641768,96.43549538392553
0.452,75.20784151709414,97.01625193778325
0.456,75.37452983930599,96.52557469322736
0.46,76.74136060805755,97.06478853941638
0.464,75.8955800515407,96.58372103832744
0.468,74.7831711956185,96.46518172058104
0.472,75.5597476472628,96.79839023320777
0.476,77.49248476192352,96.91037180571715
0.48,75.74578470936112,97.00086737288757
0.484,75.99265428034832,97.0654939782555
0.488,77.21981455107537,96.66907122150002
0.492,75.15069856574428,96.77857262449967
0.496,76.03314861990495,97.25585907803644
0.5,76.39743044838427,96.82491419634724
0.504,76.62831705946661,97.18303563328064
0.508,77.50267589360263,96.65205604019994
0.512,78.29724041813772,96.31958121198085
0.516,77.3172829235717,97.04533464464568
0.52,75.8505581615882,96.54480003925121
0.524,77.18428277943376,96.72810785336047
0.528,75.82924543068256,97.03295152279033
0.532,76.78814547265327,96.74936440355849
0.536,76.1848451898562,96.75093348808056
0.54,76.29803803841833,96.70462027335542
0.544,78.47815740002146,96.89950694500126
0.548,76.33163749492664,97.10148093739821
0.552,76.0949796283692,96.73630155946553
0.556,75.82047186912241,96.72317372296182
0.56,75.52174323892224,96.72001443060554
0.564,75.18481532097631,96.98982793116592
0.568,75.18634794969266,96.95744761189592
0.572,78.93224125026283,96.75778310879957
0.576,75.08722005121008,97.4715821247566
0.58,74.64153263255815,97.33465982626102
0.584,77.21822746741336,96.5364616558124
0.588,77.32471776451605,96.75095051131049
0.592,75.89814762173992,97.09942220158999
0.596,74.42170814732567,97.00981443956879
0.6,75.60062946900744,96.49665197362262
0.604,77.10394491127205,96.57788892890498
0.608,74.82198108875254,96.77261615922305
0.612,75.68154394021722,96.52049674943552
0.616,75.18043393016879,97.00202691349986
0.62,75.54606724470815,97.11074049987216
0.624,74.3406158984791,96.87381704471596
0.628,74.93096039078586,96.72556732866975
0.632,76.40678550818427,96.85982418306303
0.636,76.63815292085062,96.77191294784062
0.64,75.6729302501258,96.34563416479301
0.644,76.0596703768532,96.7558047323317
0.648,75.44728215194407,97.0476584379422
0.652,75.48599135584625,96.82093281706742
0.656,75.6432203934276,96.77296799503227
0.66,75.22518358054018,96.86830993217447
0.664,75.69796618434317,97.05160310569724
0.668,75.92279090967445,97.01137263889402
0.672,73.23604952539402,96.56063395662561
0.676,75.37041102757196,96.73572229136673
0.68,76.61256775788027,96.95022524114833
0.684,75.68806460932463,96.37024521342165
0.688,76.81099558801702,96.60721589036042
0.692,75.35753100673173,97.01545135277017
0.696,75.57106335036234,96.89622796208255
0.7,76.04066400764077,97.11915505740026
0.704,74.01479004846179,96.52031188850113
0.708,76.18219139231198,96.88954282672756
0.712,75.87333461358702,96.5858966582348
0.716,75.42156923073249,96.46760778480686
0.72,74.2051375073255,96.81698209240228
0.724,77.52975553020873,96.63555530491988
0.728,75.0135350638535,97.29146355484562
0.732,76.48631318097353,96.78995214065772
0.736,76.32634826083479,96.7125158620563
0.74,77.73901343462552,96.955864278466
0.744,75.78216933183198,97.06876055958156
0.748,74.98966051927216,96.66156040789515
0.752,75.57500092595637,96.9939875424476
0.756,75.03688934434845,96.67207028808927
0.76,75.87890557762212,96.82233776650774
0.764,75.1477009377565,96.62300238365695
0.768,75.32767901728145,96.79708682868596
0.772,74.54903491212997,96.81119857607938
0.776,75.99930715894331,97.11164573108258
0.78,74.50778430125996,97.11658458541366
0.784,75.38310315429679,96.93803730361698
0.788,75.2063563773877,96.61931969042159
0.792,76.58630625911412,96.98982214579893
0.796,76.60191191308479,96.84083792125145
0.8,76.98096453182114,97.05692628800212
0.804,74.65101059825213,96.5178692139973
0.808,75.70450308377713,96.42652119498975
0.812,73.4968587515532,96.96657960705072
0.816,73.80903054467498,96.80677126664014
0.82,75.18522590021418,96.88760463723779
0.824,74.3197514730314,96.9649979124279
0.828,74.57707375417316,96.68795372120303
0.832,75.8220369665539,96.57612355841303
0.836,76.06308647333869,96.72184302482364
0.84,75.34214637370948,96.90349238765144
0.844,75.64840270355646,96.95700836935752
0.848,74.82449001820076,96.87453228841288
0.852,73.89116733638022,97.05006992018886
0.856,74.13759073746876,96.78372548157056
0.86,75.39823999148506,96.92357780039151
0.864,75.79807485525434,96.68928612297381
0.868,75.05363208589517,97.27275659872676
0.872,74.24752042456052,96.90999773906086
0.876,75.49586279054988,96.81836948926262
0.88,75.53412597989539,96.97016742697024
0.884,76.12349271395348,96.86923346268308
0.888,73.52692798911896,97.22179770752773
0.892,76.22208590432518,96.99965324687349
0.896,75.14887268176935,97.04326465839262
0.9,75.16000670102552,97.14318807373749
0.904,75.18563812638305,96.7299368338692
0.908,75.34874126163399,96.69892231987812
0.912,74.96994206581388,96.97140777990488
0.916,77.06184727519529,96.80468608933579
0.92,73.8188296276076,96.84645966208784
0.924,76.86734701386203,96.79784536494861
0.928,75.38597147759747,96.66726570876669
0.932,74.545421328826,97.04824298372633
0.936,74.80558285586532,97.26147726330461
0.94,74.44660350580216,96.83888144548578
0.944,75.23269585662322,96.94511041787301
0.948,76.37077296413979,96.6537373993272
0.952,76.64161940619623,97.11233437867588
0.956,74.85216362130588,97.00838810914826
0.96,74.71661255282429,96.78603782701576
0.964,74.20655456304254,97.12131990704856
0.968,73.47543668860858,96.91756181050539
0.972,76.4600773412087,97.06316957072718
0.976,76.25561525481167,96.78385068136399
0.98,74.31829023723448,96.67384431725992
0.984,75.2674923428208,96.61633079162397
0.988,76.04837963061789,96.89292460728907
0.992,75.52316823360042,96.84943534958082
0.996,75.85202526632622,96.92857984389109
0.0,75.66386667942714,97.29449402460563
0.004,75.91729703747231,97.08710203849277
0.008,74.12179674448826,96.86547515015928
0.012,76.02675637164708,96.89085860427599
0.016,75.27448452000716,96.76392625377667
0.02,74.4356239897286,96.64269013935252
0.024,74.38711308360352,96.9027786936778
0.028,73.70411987122716,96.50085261485638
0.032,74.74796655191801,96.64415424144715
0.036,74.28941589190077,97.33987679897707
0.04,75.42376637377826,96.95579594356272
0.044,73.60838002774898,97.0362760411372
0.048,73.97775070429702,97.07375170315753
0.052,74.83867819585429,96.71155089355119
0.056,76.49023204678888,96.88846783245184
0.06,75.68201276350929,97.24619464751483
0.064,74.77275818508203,96.95975288531649
0.068,73.85172994545078,97.13755972946458
0.072,74.8342127108418,96.66069082623882
0.076,75.03638557624147,97.0579770218347
0.08,76.53918753749929,96.9695177692351
0.084,75.1556362335839,96.77794557537055
0.088,73.45839291352694,96.81026604986306
0.092,76.4172198371561,96.83509142526134
0.096,75.03367587167621,96.9008959394835
0.1,74.26966682928699,96.93229457070213
0.104,76.94249730920508,96.8821197614219
0.108,73.58159690218764,97.13552647271403
0.112,75.93059555153161,96.75593321348866
0.116,73.73118390527807,96.68828432726721
0.12,74.37815972170912,96.70469218026004
0.124,76.38056485582348,97.04147944144887
0.128,73.68052155018185,96.84655715107101
0.132,74.39627993316371,97.15065771768171
0.136,75.4166999373536,96.99655061403347
0.14,73.70065786713933,96.69397295136281
0.144,73.62044562880325,97.16505842809352
0.148,72.31785585227904,96.81041590714264
0.152,73.58971089070742,96.91728083336626
0.156,73.74362749513072,96.9353579666924
0.16,72.91413675926918,96.93321870285834
0.164,75.6434016479328,96.83937392130738
0.168,73.9900742376485,97.07693614997895
0.172,76.53338826680985,96.8276209696467
0.176,74.65731838649987,97.0365284991
0.18,72.3016596264622,96.67843975867382
0.184,74.7217362994227,96.92459813851245
0.188,75.92834190809059,96.76030578039388
0.192,75.63446852310334,96.88053156745205
0.196,75.1921364889285,97.09716364111871
0.2,72.62837788632913,96.83346686323414
0.204,75.00718999631033,97.10949161483889
0.208,74.76346680567903,97.10126721358282
0.212,74.20522923928316,96.70704171102766
0.216,74.05051968501049,96.84057793830695
0.22,72.88322403270408,96.78319595708807
0.224,74.54826097788514,96.85346740104137
0.228,74.34826294974961,97.19421816370539
0.232,75.83196679200302,97.19261579652408
0.236,74.20581839226197,96.75928868153981
0.24,73.09934199824144,96.7147119246257
0.244,73.94865644865875,96.65838448688962
0.248,73.6198473715086,97.08454374467516
0.252,74.45625583761253,96.93480576451897
0.256,75.98881273873495,97.23638588704792
0.26,73.92963792472278,96.78870503537838
0.264,76.73099885844174,97.0784878382169
0.268,75.13882190680263,96.53205133335571
0.272,76.35928401264128,97.16833685753755
0.276,75.66210169548283,96.83948727497301
0.28,73.81404549766062,96.98418029025129
0.284,76.40397895220897,97.31786460465719
0.288,74.92104417695575,97.02259337461834
0.292,74.56512613130928,96.83848540249132
0.296,72.671837257832,96.9610237413068
0.3,74.16707840384993,97.08348855331856
0.304,74.29987226927129,96.98278637548282
0.308,74.29871388586756,97.14339502350543
0.312,74.29345871489637,96.92614759658039
0.316,74.19516708772282,97.10844887008267
0.32,73.67880370986003,97.19028156947293
0.324,73.23380042298521,97.0418929846645
0.328,75.58315090951872,97.0425982115069
0.332,71.987909101286,97.17725326527129
0.336,75.34595316441875,96.78544849031714
0.34,75.13472011134965,96.64373390786248
0.344,76.07527413518518,97.00716127101424
0.348,72.261293377327,97.00200945986232
0.352,74.5557206471849,97.06596024417665
0.356,72.94405226725388,97.19272824833959
0.36,73.63417445073303,96.70317979870548
0.364,74.94472464235218,97.02314596000167
0.368,72.14738672299109,96.98149050430207
0.372,73.51619880207693,96.9638746701108
0.376,72.97111800775801,97.05496290132737
0.38,74.92504679941986,97.0355158996701
0.384,75.53892321173402,96.81025228093992
0.388,72.23516433292284,96.92854245623457
0.392,75.25926089948584,97.0510863936832
0.396,74.81505692064718,96.96244633781235
0.4,73.5670330082256,97.29109770562798
0.404,74.54773493008844,96.88156818002929
0.408,74.37928122330871,96.85886769858041
0.412,71.54293732579217,97.30805746237468
0.416,72.28646020751702,97.06131837186834
0.42,72.22420900974846,96.86836178552254
0.424,73.48748428339155,96.57451887749521
0.428,74.1497743944832,96.73560197651985
0.432,71.73887113333814,96.82860807945025
0.436,74.52069811264431,96.78851806546483
0.44,72.40296083421181,96.82975289064335
0.444,75.01264475978124,96.79579116882857
0.448,74.6734885282688,96.7215705970762
0.452,73.33353443956682,97.1063286343185
0.456,73.67512813466855,96.65306268544018
0.46,73.4182142374478,97.07310644954778
0.464,75.93520011062826,96.93448330758939
0.468,75.84546973503883,97.14410732699488
0.472,72.22719616998197,96.93223885788817
0.476,73.04852870812962,96.75662999466984
0.48,74.92565356310372,97.0053064356599
0.484,72.39655452507692,97.0836505162298
0.488,74.28133966230901,97.11127553631219
0.492,73.72831663001845,96.81824015682027
0.496,72.71663641140944,96.7322804986066
0.5,72.74128546833361,96.72130893508381
0.504,73.76072778799382,96.87477126298224
0.508,71.86296094681943,96.70699111419451
0.512,73.60148789668274,96.82116105433455
0.516,73.73465093828091,96.78667218428846
0.52,73.97618487088982,96.95704834754349
0.524,73.68961123835028,97.22524364570258
0.528,73.45685015759996,96.94718180645224
0.532,72.50511488445085,97.58268422041576
0.536,73.96727915161883,97.13316202365148
0.54,73.86957419000925,96.92044737463279
0.544,75.11687658416679,96.96923517206596
0.548,73.17970214012351,96.75087665104853
0.552,73.83234977431307,96.94801656964533
0.556,71.85548041858654,97.18650930556316
0.56,74.19565954164909,96.67946617388473
0.564,72.29822696639135,96.73977997255788
0.568,73.3695929666456,96.95990449128311
0.572,71.71962294824763,97.03999398800849
0.576,72.3251411442602,96.83867981217594
0.58,72.65600170020986,97.04656887353275
0.584,73.34572998418123,96.89649135489206
0.588,72.77215011310756,96.8816821340098
0.592,73.39435413055145,97.23735645628277
0.596,70.91580280661901,97.06700333604296
0.6,72.21902523391866,96.6686079607705
0.604,72.85946556771334,96.98341667719485
0.608,73.13518238709649,97.00123285336957
0.612,72.9192861136399,97.04657861047761
0.616,73.84962470608367,96.99712627875743
0.62,74.69000684534754,96.7609170756756
0.624,73.30677062772685,96.89143225594296
0.628,72.64676357157177,97.14242680049507
0.632,73.25894872443739,96.98552316833917
0.636,73.17752886748038,96.74994106810412
0.64,73.82845622607121,97.18215469780458
0.644,71.61557271171105,97.16315866841299
0.648,74.21308454073584,96.57549702060959
0.652,72.76026009817555,96.68934222355449
0.656,74.0867659943023,96.92605843757296
0.66,72.41653672988203,96.66378152444189
0.664,73.8597998371728,97.05395802524794
0.668,70.57161652430888,97.27467453898342
0.672,73.19980477825234,97.21573434578757
0.676,72.32134961476062,96.35669510060885
0.68,70.92740254325199,96.87902115304628
0.684,72.94292498303847,97.26478579387071
0.688,71.88765214614229,97.29855967070303
0.692,71.58650304788333,96.74964486047944
0.696,74.50346672191634,97.23803782707903
0.7,73.24956681648975,96.76410581102964
0.704,71.75871405601087,97.25478751698265
0.708,72.91798112413073,96.71085714793314
0.712,72.53767168799166,96.7512210172652
0.716,73.34186493067511,96.90379611692151
0.72,72.56073875561003,97.12801715570644
0.724,72.77489250518668,96.86697099639542
0.728,73.68491856682674,96.62731163524747
0.732,73.64661104359583,97.29382285620656
0.736,71.64937087490125,96.92001224105154
0.74,73.38462899496209,97.029644435761
0.744,73.38815241667703,97.50481180362007
0.748,72.61176033356124,96.77302915816459
0.752,73.85164810293712,97.02317753773191
0.756,73.02646545607125,96.83273559955383
0.76,73.43979462088755,96.8994956038036
0.764,72.1661685322169,97.09965932479739
0.768,71.05201107967916,96.78805127499393
0.772,72.9526304199215,97.22456046348124
0.776,72.92105486146788,97.34024859144719
0.78,72.34389112921441,96.8105423984197
0.784,74.23281792742172,96.8817668271325
0.788,73.5758625246052,96.79399170778747
0.792,71.34365925880401,96.6774567642847
0.796,74.61226376105753,96.8139187569324
0.8,72.94951995690916,96.90037214449579
0.804,72.7664870809402,96.98203360670314
0.808,71.52785521043916,96.80785047455879
0.812,73.1863791897317,96.60688917456079
0.816,73.87997582476808,96.68489417984877
0.82,70.7785952103791,97.3213013512346
0.824,71.82533610722119,97.04449753708214
0.828,72.40830373647854,97.02694542434138
0.832,72.30241799768115,96.70898773784003
0.836,70.60278734218872,96.72823909636215
0.84,72.3187178397939,97.06635272968335
0.844,73.5278896098451,96.87634209732687
0.848,72.793760396796,97.31025572199862
0.852,75.59733301454607,96.97513243852447
0.856,72.15958882468395,96.83479998333061
0.86,73.0285301282527,96.95015384303589
0.864,73.16404356784393,96.77523783061639
0.868,72.43920410546332,97.40735704950336
0.872,71.18446962000313,96.86983774462819
0.876,73.8764034424497,96.85166996111923
0.88,71.77199797687348,97.12083441867807
0.884,71.65207942586387,97.05793616390797
0.888,72.48747317569045,97.01768192581298
0.892,71.45122016965028,96.77070485347967
0.896,71.5945015994049,96.8070464721071
0.9,74.05429033609629,97.40264235465035
0.904,72.1121982414255,97.1292173959596
0.908,70.80972679067195,97.06154796950251
0.912,73.33298631918935,96.77780981772675
0.916,72.60594855572072,96.97692467360483
0.92,73.80325037213284,96.81703455517132
0.924,71.91491021964335,96.93718282039073
0.928,71.53882226559571,96.88487975029679
0.932,72.17720918849747,97.05873424732633
0.936,72.1923557074194,96.92712047782823
0.94,73.4949710703495,96.58905525509742
0.944,73.43141906330601,97.20126804820757
0.948,72.63534653069401,96.90751228826018
0.952,72.30816789090177,96.94465119132516
0.956,72.10160644210497,97.05430312773542
0.96,71.95082470642966,96.83948884612073
0.964,71.95727630562997,97.0713598493896
0.968,72.59514918442112,96.98317230173197
0.972,72.82270486890388,97.05200874557354
0.976,71.06869692013971,96.98304852529192
0.98,71.8032428674322,97.12425471563313
0.984,74.61222281629276,97.20118981074346
0.988,71.88579481257077,96.98256839893918
0.992,72.82118562779199,97.04989828195178
0.996,72.30483691191839,97.28119221621085
0.0,71.6777743222984,96.88873601418118
0.004,73.07724545102128,96.91594583572848
0.008,72.66591026400391,97.10059606639742
0.012,72.51887333017004,96.699754025285
0.016,73.14345469890678,97.26410138716798
0.02,71.10806917571051,97.28153902762105
0.024,73.6645739600132,96.931435631786
0.028,71.19076472937228,96.74126528795985
0.032,73.62880815800749,97.33792165297808
0.036,71.48742007358342,97.2239531489182
0.04,71.81929209032134,97.1563683540568
0.044,71.35784409625882,97.0241667645293
0.048,72.00261114210686,96.7843992554076
0.052,72.4590119784061,97.04168550157536
0.056,72.04028496503734,96.88283109330678
0.06,70.99627909128833,97.21134745038702
0.064,72.50756439019055,97.01811024351503
0.068,72.0921701441268,96.70947403324608
0.072,71.52872514042417,96.75387230716888
0.076,71.84041984540487,97.03408030805336
0.08,73.43025543403427,96.78116050356
0.084,71.84073441117106,97.22064366585556
0.088,69.8497599421819,97.01973590924975
0.092,70.9409309770055,97.11802280900564
0.096,73.64865648771533,97.57759064821957
0.1,72.39747981760937,97.05539837914974
0.104,71.20685084101568,96.9164228779779
0.108,71.08527716656437,96.77721758031514
0.112,69.92728244495181,97.19317962926847
0.116,69.67785053131145,97.13548909189937
0.12,73.0506616867842,97.16703395335372
0.124,70.58893075721677,96.80493092985355
0.128,73.94026615185683,97.02530163134308
0.132,72.00743606450617,96.83990095714412
0.136,72.29088997358235,96.89596660436776
0.14,72.05779590171062,96.77717897395664
0.144,70.1424220433769,97.11483211122987
0.148,71.10265946301169,96.90997975892691
0.152,70.56693982538542,96.9567910345056
0.156,70.47166391003732,97.0823152127681
0.16,72.41429870704718,97.06748303050375
0.164,71.3220874472515,97.1342503556958
0.168,72.18599939238499,97.27120095828782
0.172,73.86363985637101,96.83438746933527
0.176,72.23514993527847,97.28863693344016
0.18,70.85584121955372,97.30424768439009
0.184,71.56531208669843,96.75043242746848
0.188,72.04022434935347,97.20531264548144
0.192,73.0685889887398,96.91826797473647
0.196,73.39457954516512,96.69643119300096
0.2,72.64942059147984,97.10371431781147
0.204,69.56861573899447,97.11895093893114
0.208,70.8018228939117,97.00587110915738
0.212,69.72375891155022,97.11637907708698
0.216,71.58682126127397,97.04284272422568
0.22,71.06608174742462,97.22586923906098
0.224,73.39737556862356,96.53300303690364
0.228,69.11194635790585,96.98238762744259
0.232,70.60141537684923,97.02987461467137
0.236,72.10319457378755,96.67677575130436
0.24,71.18933618405026,96.54542644202017
0.244,70.75266833449338,97.16172998809687
0.248,71.42711390905548,96.80669254470371
0.252,69.41501081661916,97.21439232165373
0.256,71.55701354474542,96.78422108731746
0.26,72.03933191216605,97.01738245823566
0.264,71.94428958042923,96.91881456685479
0.268,71.62827850144097,97.14531080576543
0.272,71.49631406750349,97.15226632496218
0.276,72.62763594565425,97.0242594578674
0.28,70.51933530352501,97.05305517233077
0.284,71.37457603914297,96.8615194232439
0.288,69.52398000086984,97.09706546500102
0.292,71.84706394398967,96.98659317993688
0.296,70.6296512872192,97.02579912715743
0.3,70.84882526526249,96.95073655095449
0.304,72.08575184348258,97.10237766311616
0.308,72.81192342450836,96.90820919289706
0.312,71.67285222223352,97.16371350371973
0.316,72.41190854149569,97.15776352043906
0.32,72.5361077694127,96.98466690730986
0.324,71.19203627759293,97.27780245108661
0.328,69.82662768621358,96.85337494314396
0.332,69.3800767187614,97.2574211995764
0.336,71.27057314735701,96.89755051725915
0.34,70.3656348398106,97.08303181525437
0.344,71.33013675520114,96.84142979499929
0.348,71.82052479674554,97.37098461808888
0.352,72.03588587027755,97.2334484157946
0.356,71.05229309018068,97.04578422971252
0.36,70.93327624075098,96.86218853970144
0.364,71.43326418166582,97.2001170475521
0.368,72.82161653107589,96.87287712114522
0.372,70.56034295855666,97.37692362614955
0.376,71.6465725658759,96.67699116615135
0.38,72.1259983265563,97.32526576093849
0.384,69.56854011103955,96.85196911512786
0.388,71.06224204941643,97.19702180515333
0.392,71.63587387226434,96.99298310971643
0.396,70.62160841135949,96.63353648195746
0.4,70.06397893910588,97.32522992208456
0.404,70.80434667860983,96.62601642478899
0.408,70.56346045608727,97.32392343214907
0.412,70.73281465924947,96.83292578037839
0.416,70.36708832011271,97.15360204078773
0.42,70.74749390384264,96.853069089599
0.424,70.28856503943899,96.85169402509446
0.428,70.29400845722087,96.60602290953119
0.432,70.70749778497778,96.80362099893406
0.436,71.22523401068479,96.6287792261418
0.44,70.27115162879831,97.32839667038311
0.444,67.67556221377653,97.0518524705707
0.448,70.34110285700596,96.79446663235402
0.452,69.05200087237571,96.66492652339463
0.456,68.10466473927607,97.40537833271225
0.46,68.35930045834891,97.11306087464577
0.464,70.06448474623582,96.72161552256142
0.468,69.41641587940899,96.96697683312172
0.472,70.29916112097966,96.6978697785225
0.476,71.68838942567834,97.1206305305997
0.48,71.73626839790629,97.1679456569704
0.484,72.09581012967128,97.05466620637455
0.488,68.73742703275883,97.43595620977214
0.492,69.52694143068646,96.84439560111976
0.496,70.61327362091866,96.936877458156
0.5,69.62161734650337,97.0933428136445
0.504,70.67360708590766,96.8449173820519
0.508,70.14099830844717,97.29265188193656
0.512,68.3028902076203,96.868644106848
0.516,70.02675601148404,96.63124212767907
0.52,71.9330916630962,97.15214840455491
0.524,71.3200542751686,96.8667652164522
0.528,70.08759709469078,97.04648230622361
0.532,69.91638436031886,96.69968268169865
0.536,69.64117780371595,96.87604018953125
0.54,70.67600326431752,96.85129558486987
0.544,70.39694421492334,96.60800983923741
0.548,70.48287840120993,97.04451497922052
0.552,71.81578435217463,96.95938202215812
0.556,68.95228868203003,97.1149134038058
0.56,70.61592078808954,97.18923496681312
0.564,70.42667386433463,97.0937557614817
0.568,69.31962307477774,96.73825859685185
0.572,68.54872579949436,96.95545443473529
0.576,71.43278525633286,96.47265687015616
0.58,70.8782556761036,96.83121397757652
0.584,70.149481718011,97.20907183649578
0.588,71.18641406154678,96.754134179137
0.592,70.36179307139746,97.09371870226204
0.596,68.47665766522685,97.07684296563573
0.6,68.13608793576506,96.85519279921361
0.604,67.84452822744245,97.12519294785764
0.608,70.73240758511601,96.83482177448634
0.612,70.22874571879804,96.99002748023601
0.616,70.70747675396933,97.07117710436525
0.62,69.41749759818158,97.03462291599682
0.624,69.6456660849685,97.07346093436297
0.628,72.40767840902184,97.02316005734183
0.632,70.7069344719413,96.90047685541136
0.636,71.8562171851494,97.0541857306238
0.64,70.13933825807818,97.21072328223393
0.644,70.82749595621242,97.01502649465972
0.648,69.60472608696978,96.98160159399055
0.652,70.55501611089429,97.03983133469583
0.656,70.29370894213504,96.95568103174644
0.66,71.76674711509557,97.06223539887526
0.664,67.61772350244965,96.70899028441173
0.668,69.13134992459429,96.71307897157381
0.672,71.22008385526374,96.8744698292719
0.676,70.71228310032635,97.09841317295593
0.68,70.40652105159799,96.69852363990132
0.684,70.5399345760389,96.75381282044604
0.688,68.87255297734741,96.67423575940343
0.692,70.64939458519225,96.70665739199877
0.696,70.72435803489364,96.98373367773371
0.7,68.91115664781508,97.14065316914723
0.704,71.93868429644823,97.06182844405336
0.708,69.47100927935448,96.86357811996294
0.712,70.29652740418935,97.16089203032811
0.716,69.03241002108541,96.78693688360777
0.72,71.09031108480953,96.95021752560666
0.724,67.96681542919893,96.80192525827877
0.728,69.47969867418144,96.99046326157223
0.732,69.90834727935516,97.12164614553716
0.736,70.86289950073429,96.97743560251025
0.74,69.79345213450928,97.08784254016207
0.744,71.25839198438504,97.2471182511163
0.748,70.49966131441246,96.93804386473579
0.752,69.97343564938878,96.99530832672971
0.756,68.51038578570956,97.28731386459685
0.76,67.34838824681914,97.04716903175058
0.764,69.467396355759,96.44351880513759
0.768,69.27519771425605,96.91261864959746
0.772,68.37117911864823,96.98448132050034
0.776,68.15698196752213,96.85593831598462
0.78,69.4083057175094,96.96878146495406
0.784,69.84351096077903,97.14751180622345
0.788,70.61894460290026,96.7395255707976
0.792,70.07367250646516,96.92740583586644
0.796,70.05236123287747,97.27345888125626
0.8,69.75175095879354,96.69636635476093
0.804,71.2977870264212,96.8117879570406
0.808,69.30770105582275,97.17716902846485
0.812,69.55140414604713,97.21261187324212
0.816,70.79659760599232,97.2615322105376
0.82,70.60900872987298,96.93513126247173
0.824,68.80756153922022,96.81908218711139
0.828,70.18824881683494,96.96046775571637
0.832,69.07490939458265,97.05377395347479
0.836,70.1489973643397,96.74973597807522
0.84,70.55516746244263,97.08213674341457
0.844,69.18301044535366,97.14553829695835
0.848,70.21735078712915,96.88888324166001
0.852,68.59753036356702,96.8911895167608
0.856,68.86743373377834,96.92401559975097
0.86,67.96917724389466,97.4387366328574
0.864,68.05071025487763,97.05324856209035
0.868,70.82153014088831,96.99787322898564
0.872,70.41346390182115,97.09037953018901
0.876,70.134510226888,97.08448629602296
0.88,69.2143818151703,96.66556639493761
0.884,70.2338994834122,96.98545366144792
0.888,69.00335801591073,96.65517731819706
0.892,70.56587513082854,97.08485587549146
0.896,69.56745694213167,96.86641273974925
0.9,68.26306637075449,97.04809878443656
0.904,67.71826483804774,96.99531749784506
0.908,68.19363588909985,97.2547222372573
0.912,69.59461538333662,96.98800598185223
0.916,68.63621866552397,97.15858653423456
0.92,70.81840419748674,97.07732586208299
0.924,69.204213536306,96.70421923228668
0.928,67.48378144789349,96.80709459040126
0.932,69.36541682847373,97.01929269277478
0.936,68.59339894477162,97.13753679451311
0.94,68.17563407097518,96.6538468147906
0.944,68.89592940185521,97.01204438939693
0.948,69.08250334734143,97.01075383739365
0.952,70.2191331602041,97.05037524041275
0.956,69.49050993476462,97.07901057853303
0.96,68.39199818688866,96.58942984474345
0.964,68.22844617404678,96.69688281689649
0.968,69.51476121141735,96.79330709121973
0.972,69.48735700719213,96.80778992023029
0.976,67.15938986551471,97.10029763149538
0.98,69.4319425388396,97.15928764348236
0.984,68.64053082797933,97.01119707999068
0.988,69.26968339761413,96.61644524118061
0.992,68.84974983712365,97.01710078401464
0.996,71.47028699989488,96.87263274755891
0.0,67.76785540973586,97.00023820701102
0.004,68.23673596173724,97.31292167838657
0.008,69.86594359166371,97.0540275077486
0.012,70.57815317994991,96.99241892779767
0.016,68.79581609199928,96.8865990619673
0.02,67.4018782650243,96.78285550624747
0.024,68.31477897986606,96.98252874472729
0.028,69.86579657109553,96.6255809629286
0.032,69.31525495220262,97.04621005317198
0.036,68.33185179839955,96.73836199509185
0.04,68.68388117375663,96.52317589191887
0.044,69.64826937292032,97.09169085404609
0.048,68.34798565700024,96.89959586322566
0.052,68.80747354449021,96.72730916999922
0.056,67.89430200764868,97.25858195541144
0.06,70.00797821912967,96.84404026247083
0.064,68.42106833386246,97.09946337766425
0.068,69.50881983478806,97.14654739519035
0.072,68.32173774763848,97.16972779306793
0.076,68.53493469869638,96.78894370368357
0.08,67.7880791754456,96.99572772570437
0.084,69.69212859060453,96.71737430831396
0.088,70.08278591015079,97.0831077819686
0.092,68.56618041961636,97.03003878978609
0.096,68.52122070964327,96.95248699959923
0.1,67.4754453906519,96.9781579170142
0.104,68.92103537755136,96.67310299836656
0.108,68.15713441868127,96.8037589337273
0.112,69.02416626418413,97.02642559757328
0.116,68.04678537172225,96.72803679673716
0.12,67.31848068738698,96.89889866449825
0.124,69.02160081492765,96.96874037651757
0.128,67.3515526399928,96.98409886958368
0.132,70.20849564415244,97.0844020690433
0.136,69.21979186577843,96.80397649777466
0.14,70.3461490620943,96.90748217192865
0.144,67.7013187173405,96.77366861183627
0.148,68.8562526739971,96.53338655001095
0.152,69.13527008298855,96.86210736124346
0.156,67.97475007493522,96.89569509160619
0.16,68.84185349712891,96.94472824638581
0.164,68.57236890187477,96.6161172974046
0.168,68.95658700832078,96.80559721644705
0.172,67.86222389095202,97.0970596946902
0.176,70.42470015936196,96.73084943134066
0.18,70.28692570212908,96.84039128680985
0.184,67.75868026089383,96.77940237902949
0.188,67.55795166242162,96.65184696625424
0.192,67.70126297051533,96.79542433414593
0.196,67.40761701112872,96.74921206455137
0.2,67.92243079943852,96.78878222762195
0.204,66.38560735568213,96.71045383229561
0.208,69.44984358369781,97.12160034721309
0.212,69.32140707037073,96.98489113658368
0.216,68.19173201414448,97.05780789512052
0.22,68.2189148834499,96.9118341719551
0.224,69.3674266939274,96.90937948894509
0.228,69.31917315619872,96.8086355236715
0.232,66.93841023225309,96.63523705619468
0.236,69.20810892247182,96.59202944685595
0.24,70.8050076526848,97.20542559266315
0.244,67.80951246659609,97.0620304951891
0.248,69.13521295502368,96.9007891587278
0.252,70.25018693368341,96.53969489570682
0.256,68.08544482852616,97.01257758731096
0.26,68.2285356346937,96.6305990753441
0.264,69.34007155737382,96.89075670884263
0.268,70.18932043414378,96.71564600196184
0.272,67.58071241093046,96.71573719927348
0.276,67.13752315898155,96.74029109428825
0.28,68.65587756445025,97.26504572832329
0.284,68.94939589673073,96.97091845317803
0.288,67.5762398640853,96.9348364632928
0.292,67.43834199420517,96.7944297062459
0.296,67.06236830715048,97.02836833679712
0.3,69.99105205858964,96.56034383219401
0.304,66.9965134521837,96.86264211453206
0.308,66.63404878540962,96.74289799986428
0.312,67.45925798462355,96.77064163788866
0.316,68.9685495674629,96.4554414585335
0.32,68.05916927956166,96.89794462303796
0.324,68.40727851536131,96.65033894803601
0.328,67.79422946742646,96.51159655677021
0.332,68.27108362657516,96.76891727780139
0.336,66.48124403580356,96.82250257627501
0.34,66.97359341567342,96.55960078458979
0.344,68.18003233907324,96.74469123465403
0.348,68.78183008307671,96.57623655146648
0.352,69.25682448981051,96.60250074424704
0.356,66.53908052932951,96.63228282329649
0.36,67.59112445600698,96.87660018275058
0.364,68.8200388569826,96.82135558881517
0.368,66.92791185750981,96.74903298614709
0.372,69.60865757499951,97.07040867836699
0.376,70.08834322207774,96.84688467116828
0.38,69.45877585105855,96.75709491659933
0.384,69.08120702113082,96.77522307569299
0.388,68.5546224690527,96.9374117301561
0.392,69.43397939212961,96.84648557561734
0.396,67.73035161695996,96.79845450664187
0.4,67.48234141439002,96.65523104027167
0.404,67.87790193485138,96.79134862885697
0.408,68.31922739219233,97.0422620169847
0.412,66.82562823661009,96.91514144939461
0.416,68.6587368198855,96.73284318638491
0.42,67.10100633721068,96.81154530739958
0.424,65.67218483215127,96.3986622803289
0.428,67.18974589213981,97.0380175730626
0.432,66.7244224018094,96.88484831232377
0.436,67.02403952710608,96.89481637322439
0.44,68.27955791200033,97.20918003941308
0.444,68.04911908132031,96.92647369677702
0.448,67.17238313421971,96.65520602501641
0.452,67.5214701290442,96.44283927154909
0.456,69.37363234415969,96.84152677272974
0.46,67.21221957528303,96.66213835324783
0.464,68.47608868344763,96.7135264130453
0.468,68.35056036512877,96.53712115805476
0.472,67.56365081994424,97.0394478339574
0.476,70.55261319967842,96.94433701111281
0.48,68.10079866677295,96.81568826777261
0.484,68.8855832896908,96.79935705903826
0.488,66.97289937639222,96.56506078311851
0.492,68.3071266532077,96.81672523394136
0.496,68.80555010992903,97.02760058895899
0.5,67.77291336551184,96.77545900291132
0.504,68.87042272282537,96.67180754880333
0.508,68.76567843561115,96.63464561215511
0.512,66.70662093304193,96.61800650443399
0.516,69.30763639294972,97.02747585943206
0.52,67.52517223500975,96.78302717867986
0.524,69.02478716409098,96.81826864215283
0.528,68.02811290319403,96.99761782626085
0.532,68.54481908388546,97.08894639191881
0.536,66.8592277326881,96.74521915159201
0.54,67.93707116518105,96.64650927404942
0.544,67.64633277746957,96.6630846565118
0.548,67.53607158371837,97.06258466051342
0.552,69.12916174507578,96.66445962943114
0.556,69.23841802251283,97.12783819545847
0.56,68.37850625283151,96.8723119411844
0.564,67.44661621427844,96.37343597650678
0.568,67.5390282974186,96.661847046541
0.572,69.63961928249346,96.65014145969542
0.576,67.5999938218918,96.46852027537804
0.58,65.58136499132385,96.37557354139817
0.584,68.15422488345556,96.6668145180276
0.588,67.7699344664684,97.3359649345734
0.592,67.68949676116982,96.58949732056362
0.596,68.34091619856322,96.95297220727002
0.6,67.16875793898373,96.86852113121299
0.604,65.46152668045863,96.56503695135093
0.608,67.62334299222664,96.96671295266269
0.612,66.5868488900454,96.48009238859565
0.616,65.839365811064,96.96792518405655
0.62,66.42623300997563,96.62933671519058
0.624,67.65339946518631,96.9644858536424
0.628,67.33012408414638,96.97471302959308
0.632,68.0173266331082,97.16902814079545
0.636,69.16672811010082,96.73165605940551
0.64,67.8334659506883,96.48684515467333
0.644,67.94831624209505,96.6760466607503
0.648,67.65266606203852,96.81799484266598
0.652,70.20915503306964,96.70353629010808
0.656,68.37010911853625,97.03495593290208
0.66,67.18280588966155,97.13652890014932
0.664,68.02786474178272,96.70349502025306
0.668,67.50673467760106,96.95404261096704
0.672,68.7402212216007,96.94490153113574
0.676,68.48445755327491,96.72803721399656
0.68,66.6617075229432,96.82770885803653
0.684,66.49914561015522,96.24120029251561
0.688,66.90272567401956,96.73735787301612
0.692,66.28312834036252,96.81053364463062
0.696,68.29985413960122,96.64397202990021
0.7,68.5741381633884,96.68534557189203
0.704,65.7756469438918,96.53906777898491
0.708,68.38370284919294,96.63911040789954
0.712,66.16063080231164,96.73784679946337
0.716,66.07316626005229,97.09392710050027
0.72,65.94770947384546,96.47032303971828
0.724,68.39694360347674,96.58465231269025
0.728,65.84534294823506,96.98935407540051
0.732,68.12628755439711,96.7236237747443
0.736,68.45075000489224,96.69230064973168
0.74,67.46374442679819,97.03192175987782
0.744,67.51249531785541,96.76898814223786
0.748,66.98110653215518,96.73832566300376
0.752,66.45465377341436,97.12199818560725
0.756,66.98186465778417,96.63508111102355
0.76,67.3157873704223,96.48020570841085
0.764,67.01045587141759,96.4620265648161
0.768,66.72045731909326,96.93511210802907
0.772,69.04274928008282,96.77688216763484
0.776,66.11745891673993,96.55170514335033
0.78,66.3794612358732,96.70536097041175
0.784,68.44920509964227,96.54715923637087
0.788,67.25565929879559,96.76825656492524
0.792,68.51136787750896,96.55452017139714
0.796,64.53896817100082,96.41865365596536
0.8,67.47723784370666,96.61252523778222
0.804,67.4422019364993,96.96709278437592
0.808,67.54196189871575,96.74272369770222
0.812,67.05830633000174,96.50271553011522
0.816,67.67882722165281,96.8168836855401
0.82,67.77225114571648,96.74189064546431
0.824,68.16198356890715,96.26183173085442
0.828,67.4611983211932,97.00111694500792
0.832,66.98729880442376,96.85430096533605
0.836,68.31120740441767,96.78723965536963
0.84,66.9986518866525,96.62416123968778
0.844,66.1892624267569,96.93814959088829
0.848,68.21013082886317,96.70139992665526
0.852,67.0982086692704,96.44486088025089
0.856,66.459602592786,96.72685892048004
0.86,68.57997826795571,96.76375815147838
0.864,67.54013559016298,96.1151238154521
0.868,66.3639072790072,96.90768915037137
0.872,65.83573149189564,96.36665241405514
0.876,68.89284398169951,96.6143366200034
0.88,67.42037133363557,96.43649545265397
0.884,68.20055950047454,96.75144534478635
0.888,67.87591113850245,97.01829521708483
0.892,67.81698720837694,96.88223793564018
0.896,67.72493224836545,96.56897879259277
0.9,67.07933713448587,96.63884572869391
0.904,67.5923032164345,96.34790393499527
0.908,66.86741633359827,96.44739286173123
0.912,66.99761433844563,96.59116189471526
0.916,66.6628426639527,96.67607018350064
0.92,68.66046308768014,96.77880820115683
0.924,67.97000368249392,96.88596255965943
0.928,67.47377024143233,96.74528063657576
0.932,67.24988629569852,96.83862600944943
0.936,65.56330002371925,96.85379006505542
0.94,65.98064918043774,96.7311161919665
0.944,67.667031970789,96.54727366325609
0.948,69.6285879001737,95.94682699818509
0.952,69.05379100650994,96.28068094272498
0.956,67.14409479131896,96.56340069453123
0.96,64.25379409954198,96.75420636075303
0.964,66.42632924831591,96.97872961680054
0.968,67.72220130348963,96.5177271870938
0.972,65.49925563587709,96.89660485712693
0.976,68.17376709316603,96.28098542440661
0.98,66.70760164481821,96.35837281970902
0.984,68.67355432189846,96.70720193759611
0.988,66.16248322198712,96.59088953692526
0.992,66.89004746267304,96.86689378435875
0.996,63.837344792305096,96.6595100611612
0.0,68.41166875063468,96.70293503012395
0.004,67.81498579627593,96.4930484104938
0.008,65.97438825106302,96.61703980046381
0.012,67.26053961056057,96.71221842989102
0.016,67.70954305194049,96.34479765855177
0.02,68.0790322304515,96.69027303145346
0.024,66.7251433797437,96.72914387080458
0.028,68.2875120408714,96.59715812074087
0.032,68.8360892144757,96.38722683879064
0.036,69.83595093162195,96.53159021123292
0.04,66.21033041813392,96.46416939066987
0.044,67.92460504729625,96.81856097897627
0.048,67.52324428071651,96.52445691179584
0.052,65.83438459458405,96.47747500641576
0.056,66.43398139102932,96.72292424033665
0.06,67.57622292001815,96.70761888372977
0.064,65.54583892596891,96.58254106020745
0.068,66.93485195991201,96.54833335226851
0.072,65.50132848048509,96.61525350034742
0.076,67.9255999284929,96.59566123431627
0.08,67.45712592141146,96.79670430212897
0.084,66.91524067596545,96.56840191446666
0.088,68.21538423742403,96.43021979853951
0.092,67.14091781662019,96.91270457935782
0.096,66.93628698374701,96.20398564248949
0.1,66.6193322156712,96.42367631311765
0.104,67.66832801459888,96.6408194535162
0.108,68.09144341623528,96.14786629560496
0.112,66.64949473576416,96.80469955194799
0.116,65.77482166292198,96.61159836916879
0.12,69.3438186190576,96.57316940102564
0.124,68.63723452552388,96.32707038046287
0.128,67.45856855478291,96.65838489780099
0.132,67.10418233735935,96.51524026621657
0.136,66.65241332866745,96.52214441816575
0.14,66.34820422683781,96.46365487527855
0.144,66.5488611981085,96.65671398682836
0.148,68.89999871000809,96.3746387517283
0.152,66.60723664192857,96.41525023885325
0.156,68.5098603712062,96.39817987728705
0.16,68.09466848783792,96.96377756966764
0.164,66.3978094233771,96.74393298709663
0.168,68.09816763203436,96.30783187385249
0.172,68.23910488143885,96.37500300141046
0.176,67.75744018363451,96.74515325133363
0.18,67.5967146684821,96.44375600822093
0.184,67.37475225652122,96.18798151942843
0.188,64.84867716050681,96.70350843292623
0.192,65.91963497276053,96.5622836284599
0.196,64.78667203476752,96.44263122776704
0.2,66.955264295577,96.4802828414974
0.204,67.01154707718472,96.59441851740382
0.208,67.84749237776313,96.6073511274222
0.212,66.51827943024053,96.82289482073271
0.216,66.25652912660401,96.19569002930898
0.22,66.7173740360382,96.23065855892224
0.224,68.96612893349132,96.65519196967529
0.228,67.25948121321711,96.7226863218442
0.232,66.97775619770907,96.61510732328756
0.236,65.71487660993579,96.45032276802496
0.24,66.9554615594208,96.4586731637291
0.244,66.46558444565703,96.04229826717157
0.248,67.50025268036421,96.50987380589464
0.252,64.92580186530834,96.16946576166006
0.256,68.1518073038227,96.57150625084672
0.26,66.14922233168588,96.25130729508314
0.264,66.0793156102372,96.53842993875338
0.268,66.81578091186732,96.41684787940363
0.272,66.97709231458997,96.61541070794834
0.276,67.15293234290651,96.70025862068172
0.28,67.55331618350806,96.82273319972904
0.284,66.68727554182158,96.36675193916741
0.288,66.91976248232913,96.01386589715888
0.292,66.15157977603047,96.72301766201886
0.296,66.59915475543328,96.2133179233427
0.3,68.22544901151353,96.2237367686995
0.304,68.88573435005273,96.54693829020864
0.308,67.36751101734772,96.34742719854081
0.312,67.72117661379572,96.47821610037413
0.316,67.46159274791344,95.89678113927485
0.32,67.60574224577445,96.30324110362298
0.324,65.99189097585365,96.3608364395581
0.328,67.44479850129505,96.61361489672332
0.332,66.50441502584742,96.3216763689198
0.336,68.46968046970984,96.78674070462965
0.34,65.65783813452559,96.80798410786213
0.344,66.68620453582426,96.31765160615491
0.348,66.90959362006062,96.84054069174773
0.352,66.66085435860202,96.60928986358603
0.356,68.23720044103042,96.40580016898532
0.36,67.65540632365293,96.54531404631314
0.364,67.09072590457859,96.30687131258925
0.368,67.67311695660305,96.53789938108268
0.372,66.75656767229718,96.56883525778082
0.376,68.09713156029025,96.5687466152216
0.38,64.90285418948046,96.01129744526719
0.384,66.5506071985159,96.61246639634074
0.388,66.9988303649483,96.74847199100826
0.392,65.24201083132536,96.43839728856153
0.396,67.63773703755518,96.50209151713386
0.4,66.09207244112935,96.45290280124988
0.404,65.8403549689134,96.50817221550038
0.408,66.7238367027704,96.43316666748285
0.412,67.78939137642051,95.9704948297783
0.416,66.68991818757709,96.80755416740882
0.42,67.22799801591823,96.35477684837429
0.424,67.3909800673176,96.20334789951185
0.428,66.90762576715365,96.37249165065275
0.432,66.53564895115916,96.90569660052707
0.436,67.54068635609742,96.54444963482719
0.44,67.7035702497506,96.30762183683424
0.444,66.21076141715926,96.25414631916368
0.448,65.67435321470883,96.34655964156615
0.452,65.95371421291819,96.6613401066493
0.456,67.56956680298286,96.66085084236265
0.46,68.09064390952717,96.18053546287226
0.464,67.2891705275685,96.50130885947787
0.468,67.936313671027,96.67592167582157
0.472,67.82697522807159,96.37310987370569
0.476,67.79947807427314,96.23055939853737
0.48,65.15328335736808,96.5743082175772
0.484,67.58668646470053,96.68609175024397
0.488,67.94288179821034,96.36642952581171
0.492,67.37105121803253,96.48572518806058
0.496,67.3129440196626,96.23502813459872
0.5,67.7841613382,96.30411067864495
0.504,67.00183799660246,96.15903189685409
0.508,67.61354002865193,96.33306444233197
0.512,65.42128899416974,96.72476712746351
0.516,67.4864267242454,96.43529244803929
0.52,65.65402709495689,96.095731967198
0.524,66.40642811653656,96.90873904579435
0.528,66.2835414734802,96.62143646494118
0.532,66.33489956418441,96.29640718872699
0.536,66.51293986151427,96.41566759999988
0.54,66.63705469545212,96.60376877455906
0.544,66.71051785422362,96.2981313641007
0.548,67.62450358445652,96.3188232786603
0.552,66.54329003489282,96.15686245436945
0.556,68.33457175331712,96.29820758006737
0.56,65.84670579810397,96.61982245839826
0.564,67.52996982825087,96.77352076866808
0.568,65.5276188469322,96.16036373345496
0.572,67.82543229943181,96.28046249779612
0.576,66.96214096446103,96.39088854976015
0.58,68.23693610989717,96.1107620814561
0.584,66.77922940325027,96.27397966062355
0.588,67.8698395209265,96.46807525090142
0.592,66.76298372147942,96.7301333019564
0.596,65.61124828648957,96.32341496247996
0.6,67.36449295073999,95.98844596199095
0.604,66.22279894304818,96.16612302659152
0.608,66.09019564147563,96.2955211216024
0.612,65.96628027941227,96.41562134712582
0.616,66.84072448611585,96.23593016696968
0.62,66.45653614426584,96.42057600146312
0.624,66.26126358667469,95.98506170769261
0.628,65.78782180250472,96.12461142778291
0.632,65.89364921402108,96.53207701059361
0.636,67.2527249276849,96.33500537563125
0.64,67.37247140227429,96.5000220168797
0.644,66.12300624521797,96.46091801728267
0.648,68.75045806504644,96.2691613285217
0.652,68.14365288283112,96.23485829024251
0.656,66.29082330949569,96.3666072702735
0.66,68.51884608054748,96.38361883315466
0.664,67.18558168670175,96.29517600144023
0.668,67.7079182875518,96.53835635049685
0.672,65.70518188752209,96.29219983723647
0.676,66.81669847548035,96.29081322885534
0.68,66.25688304661588,96.25283312998296
0.684,66.74861271713567,95.99429268255192
0.688,67.0954080838929,96.54597785500309
0.692,68.63042265183307,96.59328078993875
0.696,67.67931604310073,96.4817817669199
0.7,67.07817739266562,96.19522762202571
0.704,66.04027187550395,96.07997844196075
0.708,66.36756295009708,96.36013347595151
0.712,67.63702749342583,96.3531061757069
0.716,68.61904584970195,96.64437363567842
0.72,66.70503989135372,96.25810338841272
0.724,65.9480990610346,96.29490893041573
0.728,68.60049951831607,96.26602921808589
0.732,68.03383082096902,96.2172526810456
0.736,67.25081117089908,96.2631527222366
0.74,66.89191237738932,96.13223238117719
0.744,68.11861625364314,96.24649383346618
0.748,66.37276536909393,96.07177037079185
0.752,67.05005395053821,95.99364872352844
0.756,68.30228086958685,96.19800415243459
0.76,67.47320506013358,96.65112210467144
0.764,66.49968087041992,96.31343041443348
0.768,66.30441107003429,96.62375589813496
0.772,66.37317998618288,96.51553050667852
0.776,66.34779304574262,96.61456031014939
0.78,68.12633336431566,96.51993369138751
0.784,67.64559820182888,96.55983810412556
0.788,66.24947352815666,96.0701846588933
0.792,67.55545415069399,96.25840156889745
0.796,67.40937543259838,95.94923990219877
0.8,66.60135661833394,96.54676874956303
0.804,66.65439207027487,96.53609457732706
0.808,66.26333892265592,95.79342068757794
0.812,67.68699373779782,96.56572980727054
0.816,67.40959340560099,96.25260298404642
0.82,66.6888378236346,95.93747172855318
0.824,65.39312543508952,96.13661088702678
0.828,67.86625699042604,96.32637245240028
0.832,66.62987412730347,96.68536868494718
0.836,67.37286796108741,96.0473760687655
0.84,68.40828645423106,96.56490950173388
0.844,66.65448163041323,96.53237151177046
0.848,68.4005794084153,96.37061492229608
0.852,66.8294807621926,96.3190990851573
0.856,67.44760254021233,96.06995672770722
0.86,68.94513193138577,96.4494713135823
0.864,67.61400992502975,96.24442696807304
0.868,67.53538849861889,96.0499954923167
0.872,67.24227360109877,95.87533901427263
0.876,67.12369373532434,96.20136794028173
0.88,65.60330292268917,96.31437601595707
0.884,68.53949829996988,96.31285840348372
0.888,65.60845745286514,96.42415545448401
0.892,68.97292602879592,96.23699084281569
0.896,67.1672576071146,96.28627768864273
0.9,67.66185480248618,95.9077890133254
0.904,64.99048255152748,96.41237491556278
0.908,65.65420229025075,95.97727327013894
0.912,66.92442722367427,96.18815630057655
0.916,66.17846412041942,96.11343009682547
0.92,66.8693954375913,95.97615886461321
0.924,67.19549747676132,96.38296186679239
0.928,66.99757476266433,96.5534915995305
0.932,66.16932461870505,96.30264575633389
0.936,67.74930454477935,96.45531361579742
0.94,67.2741689802236,96.13159509568497
0.944,69.34558567025883,96.43070839263744
0.948,67.34505881202143,96.043763540106
0.952,68.62330464642244,95.88177982227043
0.956,68.02977747600667,96.47876602313883
0.96,66.6702006206496,96.21620942906823
0.964,67.3145088251324,95.98977802664152
0.968,65.55451972732278,96.31832290697969
0.972,66.97271467784556,96.05373599791547
0.976,68.41891984796436,95.88171818148871
0.98,66.83994670614602,96.4626365515364
0.984,68.55896607702726,96.69240014093245
0.988,66.41197764505239,96.17856452872832
0.992,66.69376374838157,95.95005888417573
0.996,68.7497876366847,95.95565623188018
0.0,66.76566758893222,95.88362960103102
0.004,67.38364670226926,96.25225143516029
0.008,64.94061316543598,96.06525068331132
0.012,66.38221886863887,96.04244356809039
0.016,67.63874364098014,96.2070667006484
0.02,68.32984426772191,96.49863483665868
0.024,68.3674892800375,96.68652912978348
0.028,67.80924372915072,95.85134654100075
0.032,68.3713631840794,96.18275044207104
0.036,66.77259379959816,95.98572594788178
0.04,68.14055319663106,95.90859685493213
0.044,66.30593893160305,95.98403615494914
0.048,67.48330529768575,96.20330111584288
0.052,66.86710273373224,95.97557683974681
0.056,67.84364728465144,96.28411647743746
0.06,66.9540607836445,96.0576569021013
0.064,67.12151107125595,95.98492601666288
0.068,67.23135975746334,96.26142349150814
0.072,67.17636487082542,95.91879970608869
0.076,66.76089003878099,96.23368022344017
0.08,67.72058689724342,96.11559880610028
0.084,67.49541384275923,96.18076283730537
0.088,68.66467343353501,96.15209547411477
0.092,69.02584433260662,96.20356216868007
0.096,67.73038076562352,96.27726895074113
0.1,66.6870171812445,95.85405150266295
0.104,66.91949061765327,96.15034281994558
0.108,69.35225907074694,95.98747210843096
0.112,67.14258499015786,95.96885201612147
0.116,65.24113097148077,96.19514225198137
0.12,67.94227013655455,96.16284311464258
0.124,64.71779002301948,96.13272425752598
0.128,67.25739895998753,96.20411378324849
0.132,66.58054828160634,95.9774263382188
0.136,68.3666377565506,96.28544695840355
0.14,67.51305819776452,96.25928512619252
0.144,67.77128990595783,96.01729797360504
0.148,67.80764521069011,95.98795072330839
0.152,68.27434097818089,96.35483900672065
0.156,67.25410334513431,95.8902444007865
0.16,67.43476496490034,96.07901144141071
0.164,65.87641839284157,96.33995095949166
0.168,68.73546100620365,96.37833263933385
0.172,67.59316085908466,96.50875903505721
0.176,67.97406409185206,96.23101695680619
0.18,67.04344977066553,95.92834004105936
0.184,65.4396299956888,96.10128181872793
0.188,67.48291520189254,96.14442466100073
0.192,66.8861122953201,96.07299253226716
0.196,68.35382532426746,96.50451490442545
0.2,68.39595063936393,96.12105844027096
0.204,67.5363328149035,96.26393711326101
0.208,67.74571151893565,96.0239999920127
0.212,66.2022334271914,96.31471415504063
0.216,66.30690660163192,95.83858275732752
0.22,68.01198136453594,95.98735094629758
0.224,67.94441024341987,96.42337604597407
0.228,65.95408179266191,96.08076948039215
0.232,67.77012772433946,95.89850400932542
0.236,68.45070421350307,95.80950907305233
0.24,67.69909231303598,95.98902898618488
0.244,67.57321663552312,96.1172114194953
0.248,66.9439566323843,96.22896563430432
0.252,67.98957471742226,95.9578094847586
0.256,66.02716091151522,96.04725712434181
0.26,67.08139749470611,95.96396813120894
0.264,67.77898729128334,96.03060598593525
0.268,68.25901848138044,96.06398081809617
0.272,67.33617308275653,95.54934415776593
0.276,68.49085059027168,95.87182008421392
0.28,68.866050489361,96.1393312317519
0.284,68.48559462834542,95.9009409327723
0.288,68.48887270535103,96.10282125912572
0.292,68.96007174719834,95.88236316090293
0.296,68.33783763625613,95.97210610754435
0.3,67.20072748039547,96.11042143520692
0.304,66.60972992284054,95.87137861520569
0.308,67.49573866693814,96.30629466504816
0.312,66.98455309638271,95.65928022652297
0.316,66.54546414365942,96.37363938543997
0.32,68.89383551359383,95.84759562681658
0.324,68.42209933453952,96.0053593279654
0.328,68.83851426411749,95.8136107953359
0.332,68.63450214189648,96.12172653056561
0.336,70.55204489620682,95.77275954446151
0.34,68.09950251800721,96.08975078771988
0.344,68.57454579124162,95.84660271514899
0.348,66.82676939486447,96.18746071787056
0.352,68.86470101355141,96.11959176483417
0.356,67.31806594942461,95.97816211728404
0.36,67.2620429339161,95.76772438929247
0.364,68.00798071657398,96.37268813374484
0.368,67.74378929126355,96.14830440671015
0.372,66.78416160898013,95.8199778347449
0.376,68.11115789808224,96.12423360462616
0.38,68.60187659703526,95.85705540599442
0.384,68.14754802993784,96.10198697036472
0.388,66.98745663611992,95.84514667369483
0.392,67.85973261923738,95.77335757813528
0.396,68.93166557750483,95.89807535105469
0.4,67.89215783198347,96.16684119635325
0.404,68.21539068393409,96.03063230537877
0.408,66.9933908543561,96.09479229021669
0.412,66.73840367032489,96.41705869743431
0.416,68.79957092108775,96.21798697819757
0.42,67.673714310469,95.90925885182028
0.424,67.58082442090311,96.10941487874499
0.428,68.88011560524782,96.15744432995756
0.432,67.31947984929408,95.79194724618472
0.436,68.26421982560791,95.82994530860493
0.44,67.99583405588055,95.73952702309592
0.444,67.558216002755,95.96547331091698
0.448,68.77095691852108,96.31895392757849
0.452,65.61318361708072,95.81371046082731
0.456,69.85911532003503,95.89124087385706
0.46,67.05947303241352,96.04371975122038
0.464,66.84396116288855,95.85004243822968
0.468,68.00768230529806,95.89075908843917
0.472,67.46761752832833,95.57409090368695
0.476,68.26843068994644,95.88809480374312
0.48,67.87309959892748,96.37660563415399
0.484,69.50309945945384,95.92501206018538
0.488,68.10041075357363,95.77467609775879
0.492,66.49146647577874,96.17301418793396
0.496,69.64209652682432,95.70082268217472
0.5,68.89442374836347,95.58800627264458
0.504,69.23139226588162,96.05376695521544
0.508,66.89884776790868,95.61157153649391
0.512,66.66698707704897,95.40003082506658
0.516,67.15019450536637,95.88726877558291
0.52,67.96699166248746,96.07331950260257
0.524,66.73107355220621,95.52322234640678
0.528,68.44065512362616,95.92766731469281
0.532,68.48249528534481,95.90712122691193
0.536,67.49852337677373,95.99038223608312
0.54,68.57476457589016,96.13888685279416
0.544,68.9290634057981,95.71624121612727
0.548,67.98151074289467,96.09771111170846
0.552,66.06709017791817,95.60654908821134
0.556,66.61041070866061,96.07750317778029
0.56,67.90914662901909,95.73023963155384
0.564,66.9934826209862,95.70017508523249
0.568,67.97496339623356,95.82982302677476
0.572,67.73861582848107,96.03894345436045
0.576,69.36061121429617,95.91652115031707
0.58,68.85519466296411,96.14288358586776
0.584,68.58509468718309,95.60863647683229
0.588,69.81256898706701,95.75848820303473
0.592,70.84488719233661,95.9545460173621
0.596,67.08142484626116,95.51798143611512
0.6,68.4474112257084,95.94224613907794
0.604,68.18263341281839,96.0554722187209
0.608,68.43134083980601,96.10122846813762
0.612,69.10941841894967,95.93717006763224
0.616,65.69923605976324,95.8639508952868
0.62,68.37113093194701,96.1788918078404
0.624,68.09620508987298,95.61816204523137
0.628,67.4743399820453,95.82006027159709
0.632,68.75859488747292,95.76196682190498
0.636,67.8763474184196,96.38852954861112
0.64,68.30441217899119,96.13154048774653
0.644,69.53138609161431,96.11404681274601
0.648,66.85568463599898,95.79068418278375
0.652,66.5765399048689,95.90549686481138
0.656,67.49907375585923,95.82713795184056
0.66,67.56787640323353,95.74946705717905
0.664,67.02148091658766,95.85501288260832
0.668,68.35617132072153,95.6999101930909
0.672,67.89838956903874,95.89395312671071
0.676,68.83701987959314,96.12636826715217
0.68,68.17150516552672,95.7596055728243
0.684,69.13534787630365,95.60441427577676
0.688,68.39962611378706,95.89009710380297
0.692,67.77158341578237,95.79593911922187
0.696,68.91484387877043,95.6754588316364
0.7,68.80235015861327,95.62115286658312
0.704,68.27730353098978,95.89560591333952
0.708,67.66598944764588,95.74568999004137
0.712,67.7553013733418,95.22062727667642
0.716,67.08041880944697,96.07419691777262
0.72,68.59810114425858,95.8259616467074
0.724,68.59803942707117,95.95837860007278
0.728,69.40611879137316,95.76980845547533
0.732,65.62364936223227,95.6888942108915
0.736,66.35916217360328,95.92010885825728
0.74,68.75204987957527,96.34117007475649
0.744,69.14312289370322,95.84709534610346
0.748,69.01202836068869,95.59774125932564
0.752,68.33253313933257,96.12074745102443
0.756,67.82732085999199,95.81122927778978
0.76,69.45556653430354,95.43939270088084
0.764,68.4838481679597,95.59069182850189
0.768,68.87090082877323,95.98212602670424
0.772,67.19938514159355,95.74977777379009
0.776,68.00959820033518,95.64529423198806
0.78,68.90450402326336,95.83418870181632
0.784,68.88868564447854,95.77044987274276
0.788,67.80584508507407,95.92160960863448
0.792,69.82213981054593,95.85508844417355
0.796,69.15975485157007,95.4031310099071
0.8,69.03767846041887,95.92797821833274
0.804,67.62216444201032,95.98496946893083
0.808,67.88205789646932,95.69952526285827
0.812,67.63510426051545,95.63586571911028
0.816,69.21428345714872,95.77629566205029
0.82,70.20844891415429,95.5754888549359
0.824,68.21348278678148,95.73174231525832
0.828,67.5663128565714,96.16437729104865
0.832,68.59159988758752,95.64812043757436
0.836,70.85864367808685,96.02480536430066
0.84,68.61150584825474,95.65844524748194
0.844,68.69620583542122,95.78019942963576
0.848,67.48110834439575,96.05583435641147
0.852,64.85922272803415,95.83785659167819
0.856,66.88228061216974,95.39973382814908
0.86,68.54806862681738,95.59394075659796
0.864,68.53635582072917,95.9734009709885
0.868,68.56158506351169,96.00262807963412
0.872,69.65930490599325,95.73464209843968
0.876,68.27705835798942,95.58284391000767
0.88,68.7363021529253,95.73255022439695
0.884,69.27022782600899,95.59652119150662
0.888,67.89005599975295,95.8082134818902
0.892,67.86330840634369,96.02723252980182
0.896,69.49391359844849,96.05034872467215
0.9,68.25914792514399,95.70825749892187
0.904,68.90900497954786,95.78806562749399
0.908,69.45966685186326,95.53381114918436
0.912,67.70298288267344,95.91007316426379
0.916,68.5202802197407,95.60516787199994
0.92,68.51600532149929,95.37488945849908
0.924,71.14540645141815,95.53582002070739
0.928,68.65630203592968,95.64574373169211
0.932,70.18673640241796,95.89838185197921
0.936,69.58002445609601,95.64637429919723
0.94,67.57565336803097,95.52193756036759
0.944,70.71244385748203,95.88012664413306
0.948,67.53359607997298,95.75171708539904
0.952,70.45409638671839,95.12107580102727
0.956,68.83148122931821,95.78439930544081
0.96,69.6789978288164,95.58265803106043
0.964,67.66808198077763,95.33282491295178
0.968,69.5351688602975,95.56754206496035
0.972,68.8356130044006,95.45242319879404
0.976,69.2486273933122,95.08518915872308
0.98,70.35721650231147,95.59206707971092
0.984,70.45300611497433,95.55948511316069
0.988,69.57314076256688,96.03509995782653
0.992,70.48623852766863,95.74882143550984
0.996,70.55762061787559,95.6796437328811
0.0,68.2306605088013,95.67603691083497
0.004,71.15842848886008,95.22344113095622
0.008,69.84460920557633,95.56238145233999
0.012,68.39838332077473,95.70416283584855
0.016,69.62318308777088,95.76692636516358
0.02,70.35994605709459,95.50894920800869
0.024,69.67474326880757,95.42297977580165
0.028,67.1587127597767,95.59404690769237
0.032,69.8655144760782,95.28433640656989
0.036,71.16831276406799,95.52598184083682
0.04,68.41378688436998,95.71517805495063
0.044,69.04966104659516,95.52001097176299
0.048,69.12852132589157,95.40384354541797
0.052,69.81017249762903,95.47671047621459
0.056,69.43630118700855,95.40075032676123
0.06,69.1035824895375,95.692019344532
0.064,69.02228892738988,95.50803921490149
0.068,70.89269071656408,95.70550271904425
0.072,69.53739759803304,95.24995742811696
0.076,69.95596210904702,95.55588004566481
0.08,69.47677140993892,96.00864514180891
0.084,67.74034891943683,95.51538909151922
0.088,70.72041017657475,95.43323674141162
0.092,68.33599029739264,95.55301959100132
0.096,69.9182546823383,95.39214432612553
0.1,70.3617258953884,95.62228319990672
0.104,67.82611883550204,95.68777717936203
0.108,67.8394304127941,95.57840117668887
0.112,70.1257536516197,95.72713840571173
0.116,69.81562854180527,95.81524179818487
0.12,70.14159549015021,95.78044769345898
0.124,68.82509837470782,95.5517657563079
0.128,69.74899949713402,95.4012224229324
0.132,69.27463855181487,95.7248662544306
0.136,70.12082386589088,95.47568125485701
0.14,67.75776082464061,95.55082616654013
0.144,69.67834845871778,94.96839556561676
0.148,68.04090570161534,95.52004009379101
0.152,67.91762708447341,94.96568504023881
0.156,68.08080317309435,95.33599876456567
0.16,69.26757461416976,95.42012763731874
0.164,69.36936319289228,95.35856861998415
0.168,69.59972597851791,95.58056207427384
0.172,70.55855963949486,95.33666176828271
0.176,71.19291028057245,95.27466093578269
0.18,69.52548180319708,95.81538546905642
0.184,70.59536174265735,95.65019212591689
0.188,71.20971782482056,95.49028757947082
0.192,69.64912106431662,95.45919621304662
0.196,70.20992884595623,95.45118929469952
0.2,69.87901570193507,95.36067075293458
0.204,68.88221160527581,95.55439044268138
0.208,68.92617907806185,95.53950593116829
0.212,68.28470941139796,95.60882215798263
0.216,69.36891902230097,95.3288451244848
0.22,69.47169323306203,95.45605627957366
0.224,70.31722449583556,95.373064410266
0.228,68.58131274729288,95.64995128399651
0.232,69.98930945875333,95.26514198995636
0.236,69.79551540651704,95.5991898088655
0.24,70.71240539644964,95.39397903568059
0.244,67.34974144161227,95.84770015610808
0.248,71.5263672721066,95.53536162530601
0.252,69.45996366964692,95.43877034363497
0.256,68.39999531321551,95.25744639313416
0.26,70.02891476195036,95.47762866589403
0.264,69.27871605070514,95.32966620323965
0.268,71.21687537908097,95.54647147462775
0.272,71.18881868898107,95.37183903741261
0.276,67.35202776655815,95.52271347817506
0.28,69.53324113614823,95.45228703610807
0.284,69.1516787415179,95.57071016837672
0.288,68.80458640375537,95.51833507895587
0.292,68.77365110690437,95.3946814767937
0.296,68.91598844159516,95.13705709289383
0.3,68.91401467670809,95.29203257521391
0.304,68.09343423297344,95.04160775913424
0.308,70.56266786306597,95.60222317740792
0.312,69.99867816430317,95.42381938457508
0.316,69.93720379504241,95.70243753091674
0.32,70.52135515771919,95.57397322760858
0.324,71.70172864328492,95.44683659298676
0.328,70.2416834718364,95.23772285908402
0.332,70.31947378795185,95.29275211516568
0.336,70.55891241540172,95.39350412141992
0.34,69.1162428763871,95.53512771787099
0.344,70.52365547618737,95.2443251082014
0.348,69.54723305101408,95.27905959449494
0.352,71.55516618129629,95.30114706329589
0.356,68.31791069776791,95.19813686025005
0.36,70.0004308966784,95.30980411489267
0.364,68.24121366753334,95.49301721516593
0.368,70.05343916681778,95.66271236772937
0.372,71.03403736135472,94.88581111594765
0.376,71.52454180740435,95.93367702830734
0.38,70.25452159924833,95.03847972614534
0.384,68.810830923786,94.91627635554592
0.388,67.52984689734687,95.48438447287475
0.392,68.95845129182837,95.42220532433728
0.396,71.44166748492998,95.36279600983923
0.4,68.9774432060709,95.50575695485277
0.404,69.09029510883448,95.25010737328596
0.408,70.6497013052092,95.45614164850709
0.412,71.1132264341783,95.5630935563081
0.416,70.57491274303088,95.36080617253292
0.42,70.46502223010873,95.32483183204357
0.424,69.60345366722494,95.33327709056223
0.428,69.61950212493028,95.48309846996338
0.432,69.32720803247275,95.25661325453991
0.436,70.67829449176138,94.95432132565809
0.44,69.6834283083268,95.39994761991821
0.444,71.13530538665559,95.44794363132972
0.448,69.71307935219322,95.66667958777522
0.452,70.5712677249278,95.51882689731455
0.456,69.812592596617,95.5897354741065
0.46,69.9672000260979,95.0869590832795
0.464,69.61549777029148,95.27857781546889
0.468,69.61610251077073,95.23286360276435
0.472,70.06697677970865,95.4356516709737
0.476,71.56286208169169,95.00629055273295
0.48,69.98217475905857,95.6372871372863
0.484,70.95572009200542,94.85014464543887
0.488,71.58694490896787,95.79561247724625
0.492,71.51657646109295,95.60042826285546
0.496,69.94737502412232,95.33497646398529
0.5,70.59139205401371,95.22130003272132
0.504,72.61864419513955,95.09461527182195
0.508,71.47652490981707,95.25768876655381
0.512,70.05540644656533,95.25386703125238
0.516,69.00258641779047,94.88089353114587
0.52,70.34202277388175,95.33083863990828
0.524,70.12913183838285,95.38144052465184
0.528,70.49502688381352,95.03634769816912
0.532,71.52914745971309,95.60486694624427
0.536,71.530217848632,95.22207595507209
0.54,71.42758952312144,95.22890023820368
0.544,69.71570382863948,95.32524890203318
0.548,69.9728385591,95.25588849989008
0.552,72.30341493641191,95.3230059507366
0.556,71.16811768760068,95.38424422276385
0.56,71.06472135064087,95.20872874734569
0.564,71.7492405826086,95.03718684531556
0.568,70.79760618696696,95.3867707626019
0.572,70.36379396173574,95.61536395786585
0.576,71.21333838956761,95.22327888728677
0.58,70.18226072792432,94.93293624356777
0.584,69.51340342922575,95.1402987675739
0.588,68.89048457738005,95.18991764515907
0.592,69.69759274302356,95.16168657753582
0.596,70.24900689294961,95.49094750698005
0.6,69.10635905498245,95.19251732816387
0.604,70.36549056140743,95.23820040765138
0.608,71.35495729133929,95.17660559280395
0.612,71.34779053013207,95.4399658132864
0.616,69.74492152982351,94.9605865506199
0.62,69.89777216842128,95.01833552079228
0.624,71.49043889915727,95.46261561791887
0.628,71.84023069288502,94.91542743268614
0.632,69.85461761717275,95.3144250193371
0.636,69.7921567125672,95.3898072791264
0.64,70.70601361520323,95.41650065868461
0.644,71.58035556309919,95.0198782598265
0.648,70.71988962793819,95.32069977282774
0.652,69.06029350962415,95.15132736702003
0.656,70.42907724516958,95.15220756125159
0.66,70.99541930117623,95.15518391461377
0.664,70.22789699275515,94.71442563271437
0.668,70.66766408615702,95.26218152062441
0.672,72.42834038475729,95.0710508763486
0.676,70.64598847598022,95.42720305099635
0.68,69.66944610914906,95.33012694068694
0.684,72.89609749564441,94.94176978267394
0.688,69.95179135242468,95.11714646504588
0.692,70.09092346726689,95.30021109855666
0.696,69.9950889806912,95.19136511644794
0.7,71.5478653072211,95.31613274059822
0.704,71.99880355694137,95.14943961648474
0.708,71.73340875862816,94.80343993838441
0.712,71.19762561551063,95.00675493180184
0.716,70.39951126783693,95.11747083132407
0.72,70.55048720777289,95.26784004374595
0.724,72.8139487090156,95.08752121219044
0.728,71.1972868606839,94.98241194464691
0.732,71.59876527529669,95.39941241818305
0.736,71.60949272037605,95.1876980245362
0.74,69.97307695949625,95.30154580969145
0.744,72.45051230353538,95.28819490621177
0.748,70.19528251622361,95.06796969095939
0.752,71.7361376846854,95.23193333830316
0.756,73.70327438814783,95.07771909623568
0.76,70.30979665011807,95.04369753280596
0.764,71.94470911928609,95.02098374401824
0.768,70.71593363099517,95.40956847997776
0.772,71.72227160953763,95.34017486188158
0.776,70.27742231102216,95.02266857721116
0.78,70.5991799786282,95.31485943198494
0.784,71.06139421077249,95.1365719002722
0.788,70.66898028386726,94.7397146796951
0.792,70.96777073009976,94.88459451482174
0.796,71.08850002870554,95.04336774745151
0.8,71.28987426090568,94.80624538895012
0.804,71.18964169469774,95.21628000702508
0.808,70.63154506506443,95.08674399843717
0.812,70.23981366415138,94.68134390869038
0.816,69.0364739381068,95.31340550330849
0.82,71.60777266317136,95.11101573969023
0.824,73.80933959746358,95.24246078426899
0.828,72.58204100914114,95.0348137445049
0.832,72.40247037410093,95.11277830704418
0.836,72.9694133777927,95.09320435786083
0.84,70.06731987998936,94.96334595187217
0.844,72.22272663211795,95.48311037397221
0.848,69.80074655663444,94.82915915398608
0.852,71.61983605714516,94.8464920322409
0.856,69.96013771881667,95.08405815824307
0.86,71.08777230284873,94.65826541682029
0.864,70.84793773140005,95.0237966032969
0.868,69.91364353711516,95.19487933794476
0.872,72.05298807327856,95.28106411681821
0.876,72.31808860038292,94.9747681399916
0.88,73.98922957717258,95.05634784744967
0.884,72.85244650226416,94.76466686111387
0.888,73.49199150428632,94.94336205930615
0.892,72.49839748341047,95.14233110955642
0.896,71.4099721699106,94.93461743634856
0.9,71.8965427916689,95.14512564524696
0.904,72.13288015948059,95.01433230446793
0.908,72.73050701971397,95.02088696953591
0.912,70.9491613026938,94.91270760719297
0.916,70.82263620226023,94.77884118412547
0.92,71.89233843675332,95.41768493117173
0.924,70.81187541268152,94.83587252343403
0.928,70.19155633189331,95.25491025336937
0.932,72.12782239312271,94.82343151902398
0.936,70.7127389956104,95.03315862259217
0.94,71.8395634553976,94.88548569542019
0.944,71.71894816826907,95.03590660460374
0.948,70.83615100394161,94.73827471283951
0.952,73.40760388806379,95.24043388084593
0.956,71.02750141202358,94.88896796743853
0.96,71.7168567476639,94.79967198564648
0.964,72.57907910721568,95.07816761033439
0.968,72.8116695020037,94.6157173681362
0.972,71.84525340150196,94.99257700145672
0.976,70.96208631955157,95.13260519630107
0.98,70.08229207930216,95.2471785476663
0.984,72.43731861995116,95.41802592765741
0.988,71.70152151359699,95.23946999065363
0.992,73.24290505792747,95.1036937204343
0.996,73.02685287128658,95.3453506243471
0.0,71.37390814139553,95.25988421817046
0.004,72.71007257400235,94.77164999329464
0.008,72.45617762995528,94.71411298645212
0.012,71.17796703756933,95.19466135397019
0.016,73.00606309889103,94.78450558394141
0.02,73.44513495165194,94.86628617594354
0.024,72.30263408731301,95.31326978097344
0.028,71.67654933980216,95.19040015743369
0.032,72.12323817584196,94.9127522043379
0.036,71.3829161682791,95.23115317323887
0.04,72.37374469551719,94.93753420181493
0.044,71.45679250600739,94.92577817515965
0.048,71.26613085710875,94.97197688595072
0.052,71.23747526585494,95.11040232262455
0.056,70.22290088009562,95.01239077361349
0.06,72.50091956732571,95.11889714087575
0.064,72.21299963360777,94.92893681278711
0.068,72.22749904943788,94.8681432702486
0.072,71.63267840745662,95.30482292610557
0.076,72.25105756147643,95.03258174487176
0.08,72.88841126923116,94.86447442880785
0.084,72.44007782046297,94.99792360659393
0.088,72.30504519246138,94.65892668092019
0.092,74.28973755699047,94.78488293988418
0.096,71.89917368707616,94.99605942525713
0.1,72.11720065675041,95.11165701015068
0.104,71.25499967939405,94.93634235079969
0.108,71.84021760051161,95.14966869793314
0.112,72.50013180415229,94.99883977768458
0.116,72.4770486590057,94.74177920298955
0.12,72.16636084022615,94.92461497669571
0.124,73.19708469658185,94.70353533335707
0.128,73.32057654210153,95.01855069346009
0.132,72.77172215627549,94.8338170233626
0.136,72.3299816046805,94.63067252656161
0.14,71.39408998553922,94.75391418446412
0.144,72.36380211134016,95.14439310518593
0.148,70.50588338977262,94.98496781656061
0.152,72.79706071758592,94.58603678929778
0.156,74.31979550209516,94.8728971925185
0.16,72.39499892985006,94.68549744123536
0.164,71.20089002683093,94.75815717506575
0.168,72.91240045616686,94.89351999946994
0.172,71.61967280261307,95.13322235855739
0.176,73.96358647850727,94.73742219967002
0.18,70.98085704613072,94.98870056252025
0.184,73.43557641775048,94.78870381691982
0.188,71.92426916588289,94.93937152887723
0.192,72.6621577204644,94.81862540286495
0.196,74.74244349818132,95.18372301834454
0.2,73.7344844872235,95.08574782958551
0.204,72.05270011076314,94.87179586553192
0.208,73.40248625690653,95.00871100985057
0.212,69.79138242359723,94.84140445660361
0.216,74.65369043850194,94.73867121111735
0.22,72.77503023695054,94.96866896707508
0.224,73.74585516011886,94.79247498804213
0.228,72.27464163433329,94.86322557226684
0.232,73.17086045584936,94.96390301957013
0.236,73.1450560767724,94.62973179086468
0.24,71.22438641973463,94.82572943912481
0.244,70.63722378681065,94.57976282300417
0.248,72.35409079385904,95.20335104221105
0.252,72.92754747995299,95.09432843089284
0.256,72.24977263550001,94.55851573314338
0.26,71.10571676805644,94.67318588752411
0.264,72.42156012959089,95.1396797736093
0.268,72.96577156770141,95.0314109436111
0.272,72.66456901115244,95.15990416936646
0.276,71.74841595189258,95.06436582589956
0.28,74.05341589336113,95.07617887479314
0.284,74.24139824970429,94.86578374690986
0.288,73.77120844861244,94.65696234284282
0.292,74.79382925619835,94.71386382758655
0.296,72.84551966595328,94.55260154237193
0.3,73.30001938409099,94.9644679550939
0.304,73.90197172068655,94.82197177392582
0.308,73.1104707294657,94.6784616493395
0.312,71.53413584891776,94.61023458871227
0.316,72.76285843000807,94.83725251069717
0.32,74.50057301953733,94.85098054231761
0.324,73.52763796518076,94.97348668118318
0.328,74.12631472706182,94.96613151002883
0.332,72.2378082145489,94.42719657393984
0.336,73.00592612154871,94.64052932359425
0.34,72.34190762457158,94.44401399721986
0.344,71.78896719048461,95.02450549034302
0.348,72.32276196586453,94.76049865532144
0.352,72.3847378503554,94.84510607680761
0.356,74.09508244300545,94.5263452352157
0.36,73.00424632895471,94.72168871155758
0.364,72.10616978154383,94.89052459180161
0.368,73.02526329927106,94.46624981449705
0.372,72.04945010942329,94.30653548587536
0.376,71.37551554563115,94.48060500920622
0.38,73.2576498002969,94.3761206864512
0.384,73.42518254584162,94.70355043997252
0.388,73.64669851290427,95.12392227774957
0.392,74.03378453599045,94.71218832403964
0.396,73.26562465273813,94.70340549719437
0.4,74.11442961441078,94.86747442111886
0.404,73.9843626626044,94.82019799243497
0.408,73.26669257770781,94.88091949569441
0.412,72.664096957725,94.6499020369993
0.416,74.45489922742239,94.60079380360756
0.42,74.66912093601323,94.63905301842142
0.424,73.21405843463506,94.58390817496223
0.428,74.00808765221085,95.09974175892592
0.432,72.41043694812281,94.61000099845943
0.436,71.8682479524005,94.89764547611817
0.44,72.65066968224292,94.71517511982017
0.444,73.9946589154782,94.87151009486676
0.448,73.80778168513248,95.04076791707791
0.452,72.37823745305883,94.8090759750824
0.456,73.26488407677017,94.92621068385934
0.46,74.99225817989769,94.91711561210002
0.464,73.69084872255742,94.26776094521826
0.468,73.61797951884226,94.52961239119931
0.472,74.43280461142135,94.56844115783491
0.476,71.75065487468284,94.6553901451692
0.48,73.62955262462854,94.75548145859374
0.484,71.35784138080747,94.33021299567086
0.488,73.16599786262518,94.74276846576333
0.492,73.59189301774877,94.6410731273341
0.496,73.45437067804554,94.71317209747292
0.5,72.77050126791607,94.25478520941374
0.504,72.96386527400584,94.86005172368081
0.508,71.92278751667128,94.81497149973755
0.512,72.14616677162331,94.70064384125337
0.516,73.24839152624789,94.68949043487751
0.52,72.2967961188348,94.4438744779056
0.524,72.40567256954805,94.69621282377285
0.528,74.39670029366658,94.76598390619439
0.532,75.01004432183372,94.62026111702232
0.536,72.4469935631452,94.57142001056368
0.54,74.24705476036578,94.60064186778216
0.544,72.0780781242679,94.6128842327119
0.548,72.51074355969557,94.50847275291315
0.552,73.60880018485706,94.8409551735806
0.556,72.36130043099277,94.58798881662058
0.56,74.03138660207682,94.34274985201121
0.564,73.14315339425356,94.8950197368396
0.568,73.93056322529132,94.72116840054598
0.572,72.74750731987835,94.36567066801013
0.576,73.9966007908608,94.44119999122526
0.58,73.36185173653831,94.3922511859704
0.584,75.3775677619084,94.37997542933488
0.588,72.37916253076463,94.16821988558209
0.592,73.92203983305791,94.60746209009103
0.596,72.86797475121789,94.34123781973766
0.6,73.06433985890229,94.51004861937372
0.604,74.25954827924821,94.69397645257217
0.608,74.55970775925329,94.90712604643831
0.612,73.96143199975636,94.59427437389027
0.616,74.21126676173313,94.7565591150751
0.62,73.10944957172073,94.87450506939655
0.624,74.55092675872991,94.86692311195378
0.628,72.226226038248,94.65854824762194
0.632,75.90672799538889,94.67000050884748
0.636,75.83314110816954,94.26599532271544
0.64,72.12787338898148,94.45268206308558
0.644,73.7054911599021,94.53644454396242
0.648,73.79154879673786,94.69500913333762
0.652,73.60576301807961,94.47834269243639
0.656,73.18001265303798,94.82106318360579
0.66,74.00224656313328,94.17519720928192
0.664,74.87986230972214,94.65657659637431
0.668,73.94732660414658,94.9284828194577
0.672,73.14243966626908,94.51901896781814
0.676,74.79701840630862,94.77868326344455
0.68,74.91950160950785,94.34115810614345
0.684,74.00387883969157,94.50382637454285
0.688,73.54980672542786,94.29230345323147
0.692,73.70252113333535,94.33720308700273
0.696,74.3586671728933,94.4530492912495
0.7,72.89607765902352,94.56513175421523
0.704,73.6970728653446,94.5030551029643
0.708,75.48259954642946,94.47729116398754
0.712,73.43627315925613,94.63210239823806
0.716,73.90933301876379,94.04920624250799
0.72,74.71211216606298,94.33623247829058
0.724,73.69983058120717,94.60584859753797
0.728,75.22402003256035,94.09244452724839
0.732,74.97025271563587,94.62593375973684
0.736,73.52849232961862,94.80132243961259
0.74,74.91271288329267,94.37252413842712
0.744,72.39087903218017,94.99340382689718
0.748,74.14271071501466,94.59543827354784
0.752,74.35292793800393,94.65836035481401
0.756,72.26981940176668,94.68592959066568
0.76,74.43743341285473,94.23794215076275
0.764,74.05767015598676,94.53804487030406
0.768,74.4603804495782,94.37737128898274
0.772,74.35659454046639,94.28343688179712
0.776,72.994334558498,94.58518970348156
0.78,74.39995482025229,94.54643769990226
0.784,74.53219309838059,94.65664879120169
0.788,74.07581035433739,94.2875166589995
0.792,74.39832658955598,94.69833412791507
0.796,73.4870824448109,94.4420194949978
0.8,73.64712326324661,94.83922961388095
0.804,74.94224152307973,94.4613699308372
0.808,75.84009696648694,94.32987006734555
0.812,73.95414067231718,94.11131133139958
0.816,74.53413467197167,94.60454470730838
0.82,73.69192512797848,94.5836831989114
0.824,76.31930662612109,94.70978652854927
0.828,73.37078161217856,93.8136929692713
0.832,72.91680971695338,94.60032559178212
0.836,73.51869779842116,94.25721882884645
0.84,75.6696374986274,94.69748431037506
0.844,75.82660340916298,94.49411512680972
0.848,74.39258485850934,94.6744880571469
0.852,75.79137556177132,94.68374808780518
0.856,75.44260584216784,94.51411492267863
0.86,75.55349426139834,94.49683078616555
0.864,74.72306985000056,94.40530376402735
0.868,76.10276614758247,94.92996956572112
0.872,74.07351964350921,94.67152039452151
0.876,75.58249999264099,94.53016305172896
0.88,74.45768855464378,94.41985489508654
0.884,75.08674692295014,94.75558499969796
0.888,74.67492529923453,94.13679367423069
0.892,75.0465145662605,94.71375489495757
0.896,73.95871810968741,94.56833353278503
0.9,74.92929999683514,94.65879030106956
0.904,75.27570764265684,94.7592400474356
0.908,75.64264549171091,94.47246804497355
0.912,73.62099048745132,94.45916775356486
0.916,73.4147808168572,94.3612730250892
0.92,76.25122680542398,94.36873224002989
0.924,75.3695626807413,94.47880070606394
0.928,74.13315832449061,94.81385553672915
0.932,73.57872437134162,94.15709488852019
0.936,75.28441741561879,94.50518624943875
0.94,74.35645299333618,94.69523061500858
0.944,75.07514344741838,94.97349193762533
0.948,72.69959780087953,94.43053174099194
0.952,74.54899069935809,94.41785446213552
0.956,74.60392735134467,94.28670149022305
0.96,73.89156881791665,94.23777160413462
0.964,76.76917883280393,94.70384026076309
0.968,75.0903978782893,94.34292496537012
0.972,74.02744454342799,94.58455803131349
0.976,75.4296168014195,94.45952938471413
0.98,73.39807763159013,94.27537078309143
0.984,75.37007953594676,94.11341572801979
0.988,73.00135743956385,94.47823130126503
0.992,75.86039946751369,94.59372376659618
0.996,74.68821469441006,94.28181586353126
0.0,74.21234497742536,94.3290237572415
0.004,74.92181742755227,94.25439731694894
0.008,77.6553287140118,94.1576071030299
0.012,76.59681645920175,94.32520468435084
0.016,75.48424696180166,94.02746528174062
0.02,75.95674612050063,94.45400921824942
0.024,74.52861361610373,94.47816087571657
0.028,74.03028770773406,94.3295026739468
0.032,74.72057143943242,94.13394064273294
0.036,75.65121183258205,94.42438759455104
0.04,76.22429111868571,94.23443527985073
0.044,75.7589737652272,94.67386232812392
0.048,75.49713981256448,94.12206691163091
0.052,75.44842190592485,93.84299273096622
0.056,75.61295450373865,93.7768877303432
0.06,77.05085099401133,94.35265339075987
0.064,73.66618368087933,94.53636221387856
0.068,75.54211795159554,94.48751669963788
0.072,75.47817067815735,94.24861554736148
0.076,74.28288727333666,94.2050216663763
0.08,75.82188411351379,94.33543533623923
0.084,76.51869591102603,94.50002281125018
0.088,72.70295198870787,94.50362351598926
0.092,75.41915222669425,94.44661856821541
0.096,76.47997107935385,94.21527363839893
0.1,75.04462890283133,94.0806816264615
0.104,75.37418215987704,94.12523783833001
0.108,74.08643059052963,94.11893130018066
0.112,76.05738234002261,94.59849267596293
0.116,76.38475753764527,94.47929026456337
0.12,77.01732876041494,94.29007339186674
0.124,77.09680295627466,94.37069512114898
0.128,74.97257710760297,94.37195870239177
0.132,74.87957347635985,93.97751044282185
0.136,77.42252961388604,94.09958029855848
0.14,75.38409997334468,94.21772537338896
0.144,76.19921766856925,93.98376064695694
0.148,74.42095415530834,94.71946367469745
0.152,74.5453531206173,94.24228607002964
0.156,74.81091432373461,94.06672099430958
0.16,76.20124424652282,94.05249118782186
0.164,74.75354018150735,94.60447074681372
0.168,74.80741828299199,94.26397626727584
0.172,74.48910853762213,94.25272262026196
0.176,77.07755121145296,94.07169209078667
0.18,77.31463502327591,94.28338931062254
0.184,75.7677032790892,93.96601107931944
0.188,73.61923564641859,94.46765667050525
0.192,74.21559370612903,94.28784201245357
0.196,75.98632123748992,94.32074996290838
0.2,77.37745812493407,94.40087844391844
0.204,76.25261575180465,94.10564285291936
0.208,75.0778422970436,94.48266935415384
0.212,74.40325574917176,94.30149966504398
0.216,75.69133210809844,94.13518471703556
0.22,73.96300804680754,94.13595844668608
0.224,76.18359873528826,93.849453967475
0.228,76.04196867419837,94.04755650935566
0.232,75.85385083595698,94.46092197626704
0.236,75.26942030342725,94.44720507631583
0.24,75.25758049552236,93.73651615751454
0.244,76.91721016440036,94.35177965328195
0.248,76.80965138007444,94.21884900321885
0.252,75.23097673512274,94.30858343009436
0.256,74.88213046327208,93.96622171527132
0.26,74.29632246774612,94.1959739208196
0.264,76.38719655979823,94.11929129030209
0.268,76.64381874361916,94.04231090081542
0.272,74.63324266860727,94.5302240464481
0.276,75.37347806705871,94.03974905679291
0.28,74.77380350464585,94.21399356139187
0.284,75.30218833197688,94.58582226216598
0.288,75.26013039791128,94.18372094424609
0.292,74.51039487219036,94.72150932740557
0.296,76.42352597380629,94.34044216311877
0.3,75.83268656115159,94.47116739694546
0.304,74.49445587027985,94.20154273381134
0.308,76.16208432629792,94.26203959047325
0.312,75.18150027095349,93.95716655553684
0.316,75.43631303284448,94.231502022846
0.32,75.57992285628345,93.88285260563482
0.324,74.51269235330368,94.38432650883959
0.328,75.54468462082596,94.31236724274342
0.332,76.05692537770922,94.08568981327902
0.336,75.76830304725455,94.37380425974159
0.34,76.5682637178358,93.78050639788566
0.344,75.17633557068154,94.2529095292645
0.348,74.60468368278188,94.28939867526236
0.352,76.05623038114771,94.34850600551532
0.356,75.12308893276143,93.98131646896672
0.36,77.16681939490039,94.3970747227055
0.364,75.7121346980876,93.69824482336745
0.368,73.48145233972585,93.8977941546143
0.372,75.6187495954237,94.15766486055944
0.376,75.61937903999576,94.37342934865697
0.38,75.60533654627895,94.28104321546785
0.384,76.35578413032768,94.27412391111457
0.388,77.2380165770166,94.15504796470876
0.392,75.96795724721572,94.36585734846498
0.396,75.05798923549588,94.05085981080128
0.4,75.70146110903492,93.93051450452742
0.404,76.51496789851188,94.18849178717153
0.408,75.90052866899696,94.15976524408333
0.412,74.36551673449296,94.15928722877796
0.416,76.84026553537775,93.96586087856045
0.42,74.37394628100004,94.01580258664546
0.424,75.80187968659332,94.1344679977664
0.428,74.99659707978218,94.06881222628257
0.432,75.62020941514683,94.50214368221965
0.436,74.77829373698296,94.04107838874745
0.44,74.71619146917364,94.1036341841056
0.444,74.75636520477552,94.10465352382742
0.448,74.81535238581783,94.28470985292608
0.452,75.59329890221777,94.12380043302603
0.456,77.09627924624895,93.73027246362115
0.46,76.76923119510897,94.12302008533995
0.464,74.55284767083792,94.20073270550633
0.468,76.48600718601404,93.99377688539094
0.472,74.11545475564687,94.39034982396842
0.476,75.47013649914763,94.39910804232478
0.48,75.83160006147759,94.19873381223726
0.484,75.31870359652781,94.04134384271175
0.488,75.0304674652876,94.16844823450832
0.492,75.80875403251846,93.94537489740327
0.496,77.09699474550493,94.1967641901877
0.5,75.25041857551658,93.91703618899417
0.504,75.56725907148753,94.11526177101902
0.508,76.01353483331756,94.28201003989054
0.512,75.8635596389892,94.44206791160221
0.516,76.02675424446961,93.8906846832138
0.52,76.81330935868242,94.23996739568523
0.524,75.6900193992346,94.25343854446906
0.528,77.93462526114132,93.80877062767104
0.532,76.27026896784065,94.01646553703729
0.536,75.11159152902025,94.16484762930497
0.54,77.05770459179885,93.879647728611
0.544,76.46425328394119,94.23539547845687
0.548,75.54371513953865,93.81196382548613
0.552,76.19431783912526,94.03986661663316
0.556,75.77925223307376,94.01781692485073
0.56,76.5060783278627,93.67391034441451
0.564,74.93160916746726,94.03261431609171
0.568,76.99132939825282,93.74215945268901
0.572,75.71016100448887,94.11140485993734
0.576,75.42487604622163,94.02922990154352
0.58,74.73464114819075,93.97605621682804
0.584,76.81055068977659,93.85273608832182
0.588,75.24927072346567,93.97752530009089
0.592,77.62079868468696,94.54670875991764
0.596,76.24632146306973,94.03869866708914
0.6,74.551475833911,94.32836551176905
0.604,74.29950761538704,94.0444800879596
0.608,75.97336979113378,93.88750169045029
0.612,75.88454165704411,93.70465974068506
0.616,75.85596074026628,94.37103361516242
0.62,77.30471515275511,94.2792357296578
0.624,76.30431393805843,94.02553060795971
0.628,75.93490453019274,93.91958727490082
0.632,75.64070081743421,93.93297460944805
0.636,74.9197686573463,93.93714033617366
0.64,75.67751051151517,94.26742470784968
0.644,76.91534236838767,93.9684410571299
0.648,75.49141081463654,94.20261006460663
0.652,74.4629849187066,94.03038236916359
0.656,75.63649284680474,94.34934284146306
0.66,76.32883519222389,93.94271809642844
0.664,75.59138497642968,93.91753973794957
0.668,75.91673952303026,93.9647543900552
0.672,75.60093191529593,93.99562927820241
0.676,75.41913454132252,94.18273340660228
0.68,75.13332064793559,93.8792417837093
0.684,75.92727046874195,93.79735196567944
0.688,76.372942543924,94.05351769087999
0.692,75.94506802098007,93.95911686606489
0.696,74.83954331034505,93.99809144606446
0.7,75.813775523047,94.1814094076846
0.704,75.95656519849088,93.72687849544283
0.708,77.75727255078968,93.77994457787135
0.712,76.54081912019653,93.8975211493505
0.716,75.4004307047002,93.57984934458754
0.72,75.50979387816548,94.23002704893312
0.724,77.66754484003891,94.04460699282207
0.728,76.71743422674683,93.80189808695852
0.732,76.89535751983531,93.92562868679674
0.736,75.47114884787574,94.15325775828705
0.74,77.9493471568882,94.23063617766717
0.744,76.26169647693017,93.81212010847847
0.748,77.2980683937345,93.74100360001263
0.752,75.55837156532407,94.47224840984146
0.756,76.89656476812414,94.17993627035624
0.76,77.13708320853577,94.28893037244718
0.764,75.96751583310981,93.82190819019714
0.768,78.36927831704725,93.89046689138414
0.772,75.40525165598314,93.94701495907101
0.776,76.9498852517897,94.01516767470946
0.78,74.45415916965146,94.47909173719327
0.784,75.68520510407625,94.15609390324713
0.788,77.28603110818986,94.40267614170288
0.792,76.38682977853793,93.72247109386582
0.796,78.56912783101467,93.99736165780287
0.8,76.65695781345153,93.85586449900372
0.804,77.36846857773486,93.77335257693086
0.808,73.71502109195477,93.85043089670734
0.812,75.65366293538963,94.21709984248467
0.816,75.53511024200058,93.93450969058975
0.82,76.11966377266822,94.10381415310836
0.824,75.47799286061431,93.8063438926662
0.828,77.4476095652294,93.72015107543785
0.832,76.90140910058842,93.80123721851551
0.836,77.32006290489208,93.65590512727942
0.84,78.73396014768589,94.2156194088782
0.844,77.43169582956659,93.92822021861082
0.848,77.23029476535399,93.94624935149687
0.852,76.29757212388594,94.03517620251057
0.856,78.03461658083022,94.0276207995133
0.86,77.8819338304638,93.7732562404868
0.864,75.34865382432926,93.6829903653228
0.868,75.47324151402509,93.86843598793023
0.872,77.30174344362014,94.34199226320007
0.876,76.04527506974803,93.95230124924142
0.88,76.35716037255074,93.88987133063306
0.884,78.14787811765143,93.8725376883224
0.888,76.22329822855731,94.08860087630327
0.892,76.93667065489271,93.7371770941925
0.896,75.08186521447305,93.91892884361548
0.9,74.57607161537601,94.0350217645115
0.904,75.242659531152,93.6169181260438
0.908,77.93153046397775,94.14253447672013
0.912,76.63069608645111,94.3586293036303
0.916,76.86802310738128,93.44266702161279
0.92,78.3949173125655,93.4502766259099
0.924,77.49460926686278,93.72020110938641
0.928,76.99163942225546,93.75713769115652
0.932,77.06970080552566,93.88744320220485
0.936,76.93961790919025,93.89858843349224
0.94,75.6903573044826,94.07132482465506
0.944,76.44948244100837,93.55746010688608
0.948,76.28110980700563,93.56068692204538
0.952,78.09664699978363,94.05418885254613
0.956,77.7757867853757,93.89777457028579
0.96,77.1646786765035,93.96176318217626
0.964,78.37236043277515,93.7425255466984
0.968,77.14505113938034,94.03816016923396
0.972,77.32700588545593,94.04730612778154
0.976,77.83888372618468,93.71522406824593
0.98,74.36182199587344,94.21299640466636
0.984,77.69986971582172,93.54545191033546
0.988,76.63944395844999,94.15583112688238
0.992,75.99546393419472,93.97414919396613
0.996,77.38553846341634,93.6994709732987
0.0,76.17131716893407,93.55073527899037
0.004,78.59427822585666,93.83684189637538
0.008,77.05794542012774,93.60074550763451
0.012,76.3600776394948,94.06808160324596
0.016,76.1100936006156,94.0348346798552
0.02,76.13419335168841,93.61044146683444
0.024,76.2356058437652,93.51240825005624
0.028,76.68042206434494,93.75581780935589
0.032,78.49351140937412,93.66773272759114
0.036,77.77431156437763,93.94697892395534
0.04,75.06762934990418,93.81701271244395
0.044,76.60079930898395,94.04716068555697
0.048,77.43983060011675,93.96670632318728
0.052,76.35760355361036,93.48695111175387
0.056,75.90410096947447,93.58880350797821
0.06,76.42805476463546,93.77467367618378
0.064,78.22666086467308,93.41801520235398
0.068,77.0209026332699,93.90252020362892
0.072,76.65980090930357,93.79152625182729
0.076,75.72582270114252,93.90422427466747
0.08,77.70266256614597,93.67966954319444
0.084,76.22260973766375,93.64231213786323
0.088,76.27242396303531,93.78764698869779
0.092,78.66139551788486,93.87031197089848
0.096,76.18903817504786,93.8416694474558
0.1,77.27904716524533,93.89015393426345
0.104,75.64019325958817,93.8803244662182
0.108,76.59642654887303,93.8509098662797
0.112,77.23748332562178,93.57070655480295
0.116,77.45936911167729,93.73395327762432
0.12,76.29217499023065,93.41774914454936
0.124,75.32696190185811,93.62257080099126
0.128,78.05081068648924,93.5730279857685
0.132,77.84811452320936,93.50520730606726
0.136,77.06620076341996,93.62497984969164
0.14,77.82231704586034,93.45017905312025
0.144,77.57905026126632,94.00448378667858
0.148,78.42033665154267,94.21035303248911
0.152,75.87517773228325,93.95624477183094
0.156,78.64305476093182,93.91922332565055
0.16,75.95821898676768,93.6571533797818
0.164,76.69437136420372,93.607214082702
0.168,75.67028795418855,93.65039172129181
0.172,75.35557619966967,93.79690012447125
0.176,79.08302774171028,93.57864476545646
0.18,77.55483872167814,93.69560241717583
0.184,77.53875326405652,93.93480403509575
0.188,77.97440107665807,93.75059429174686
0.192,77.5026727066595,93.53100595770984
0.196,77.22920414814297,93.59951314187786
0.2,77.48281590200725,93.74014520256426
0.204,77.71539159141906,93.76173487447923
0.208,75.57719388155328,93.68194585280621
0.212,78.34749622788736,93.85037690904552
0.216,78.31850350924294,93.79387837553348
0.22,76.96621859966852,94.10027667905527
0.224,78.58870670871345,93.9016846622022
0.228,77.76376439469064,93.62526866992353
0.232,75.85139324230727,93.62162275776886
0.236,76.72437920244677,93.6010902991862
0.24,75.33078421206217,93.44239574696503
0.244,76.93153085255157,93.69894856341269
0.248,77.95772983627012,93.78934069797755
0.252,75.83689974722628,93.96738437024672
0.256,77.8344603845788,93.5777457498859
0.26,77.85689390494345,93.8907533262052
0.264,76.92354823336865,93.96454081772096
0.268,77.80983128021181,93.89704201830963
0.272,76.7346877804984,93.95287265538947
0.276,76.87359689365495,93.55811625456961
0.28,77.11016367617137,93.77149799481722
0.284,77.45519934168539,93.77930869904283
0.288,75.81543799559329,93.97634237660921
0.292,76.98084530807473,93.91341979301839
0.296,76.75402955066666,93.8960196082851
0.3,77.04403176035154,93.68624381032585
0.304,77.10477320227243,93.40796862884524
0.308,77.84853933376955,93.85999556904987
0.312,75.74096810951178,93.41121497197386
0.316,78.22458354231208,93.85822531050816
0.32,76.84106789822621,93.59403953827047
0.324,77.55635120849183,93.61771974751771
0.328,78.80123650404181,93.61673996620964
0.332,75.7573377455532,94.05961471622727
0.336,76.57193798300779,94.05875825464334
0.34,76.36954743445727,93.70183470861357
0.344,76.30695363222928,93.96354583257657
0.348,77.09388193929672,93.94017988293969
0.352,75.23693170437693,93.64865020815564
0.356,77.44356494530787,93.58552115997905
0.36,77.34912421808231,93.74785619021118
0.364,77.76790317679894,93.80629241903631
0.368,76.64923697325514,93.6712800315462
0.372,76.5099017781285,93.74123081082028
0.376,78.1388653983337,93.55196005259741
0.38,76.59939972144082,93.897831748163
0.384,76.8307358128057,93.55681435170581
0.388,77.57891097896585,93.70809696943387
0.392,76.67351951192933,93.45669214111716
0.396,78.76792746774383,93.54801878453047
0.4,77.02079521977129,93.7002041035137
0.404,77.8281282910837,93.64112315479578
0.408,77.85888868744341,93.6978794161778
0.412,77.73469944666766,93.72207450160114
0.416,76.18864667799232,93.45829191482309
0.42,76.87300955871265,93.69860914518567
0.424,76.7510979268283,93.72280146327645
0.428,75.6294012585774,93.34297278446364
0.432,76.83552907260503,93.41591073896264
0.436,76.97977712376799,93.70378469418189
0.44,76.53103555626735,93.28854593241579
0.444,76.07748784304468,93.44742733641634
0.448,77.46046208561265,93.57918629313363
0.452,76.26811667456545,93.89632708418172
0.456,75.85588425473965,93.31565523203369
0.46,78.60846874878848,93.70446409833855
0.464,78.70808483692463,93.88355155289258
0.468,75.44655907584777,93.81906361480097
0.472,76.67843867086464,93.69939399934782
0.476,77.73512798547283,93.48797388205634
0.48,77.85370643879581,93.40967312997978
0.484,76.94558389869246,93.45606104696174
0.488,76.74358943096914,93.84845663495425
0.492,78.06051870361435,93.23091414449557
0.496,78.59274741931024,93.60662442291796
0.5,76.74928571995689,93.52947093793142
0.504,76.40275881710772,93.61085697094826
0.508,77.57734593441383,93.50397479981088
0.512,76.4208989225986,93.38379485971002
0.516,77.94707788193297,93.83937232519669
0.52,77.18779261865009,93.66103350017531
0.524,78.2241183001386,93.63220845909154
0.528,78.08754871938473,93.55728728173044
0.532,77.35189981032573,93.55145234082521
0.536,76.92940943408901,93.7217895772055
0.54,74.97788760394025,93.34192263944524
0.544,77.88651252164267,93.72437800381412
0.548,76.3172488582835,93.42552085089294
0.552,75.74655174708145,93.65717618373337
0.556,77.70917790467608,93.31303155010949
0.56,77.43918534012874,93.55673062334462
0.564,76.4958601303639,93.33373928115797
0.568,76.63764838786571,93.69815752634565
0.572,76.86262868258078,93.54864934350927
